"15min_1_05_05 - RawData"
"Wavelength nm.","Abs."
300.00,0.361
300.50,0.360
301.00,0.359
301.50,0.357
302.00,0.356
302.50,0.354
303.00,0.351
303.50,0.350
304.00,0.348
304.50,0.347
305.00,0.345
305.50,0.343
306.00,0.341
306.50,0.340
307.00,0.338
307.50,0.336
308.00,0.335
308.50,0.333
309.00,0.331
309.50,0.329
310.00,0.326
310.50,0.325
311.00,0.323
311.50,0.321
312.00,0.318
312.50,0.316
313.00,0.314
313.50,0.312
314.00,0.310
314.50,0.307
315.00,0.305
315.50,0.303
316.00,0.300
316.50,0.298
317.00,0.296
317.50,0.293
318.00,0.291
318.50,0.288
319.00,0.285
319.50,0.283
320.00,0.280
320.50,0.278
321.00,0.275
321.50,0.272
322.00,0.270
322.50,0.266
323.00,0.263
323.50,0.260
324.00,0.256
324.50,0.252
325.00,0.250
325.50,0.247
326.00,0.245
326.50,0.243
327.00,0.240
327.50,0.237
328.00,0.235
328.50,0.232
329.00,0.230
329.50,0.228
330.00,0.225
330.50,0.223
331.00,0.221
331.50,0.218
332.00,0.215
332.50,0.213
333.00,0.211
333.50,0.209
334.00,0.206
334.50,0.204
335.00,0.202
335.50,0.200
336.00,0.198
336.50,0.196
337.00,0.194
337.50,0.191
338.00,0.189
338.50,0.188
339.00,0.186
339.50,0.184
340.00,0.182
340.50,0.180
341.00,0.178
341.50,0.176
342.00,0.174
342.50,0.172
343.00,0.170
343.50,0.168
344.00,0.167
344.50,0.165
345.00,0.163
345.50,0.161
346.00,0.159
346.50,0.157
347.00,0.156
347.50,0.154
348.00,0.153
348.50,0.151
349.00,0.150
349.50,0.148
350.00,0.147
350.50,0.145
351.00,0.144
351.50,0.143
352.00,0.142
352.50,0.140
353.00,0.139
353.50,0.137
354.00,0.136
354.50,0.135
355.00,0.134
355.50,0.133
356.00,0.132
356.50,0.131
357.00,0.129
357.50,0.128
358.00,0.127
358.50,0.126
359.00,0.125
359.50,0.124
360.00,0.123
360.50,0.122
361.00,0.121
361.50,0.120
362.00,0.119
362.50,0.118
363.00,0.117
363.50,0.116
364.00,0.115
364.50,0.114
365.00,0.113
365.50,0.113
366.00,0.112
366.50,0.111
367.00,0.110
367.50,0.109
368.00,0.108
368.50,0.107
369.00,0.107
369.50,0.106
370.00,0.105
370.50,0.105
371.00,0.104
371.50,0.103
372.00,0.102
372.50,0.102
373.00,0.101
373.50,0.100
374.00,0.099
374.50,0.099
375.00,0.098
375.50,0.098
376.00,0.097
376.50,0.096
377.00,0.096
377.50,0.095
378.00,0.095
378.50,0.094
379.00,0.093
379.50,0.093
380.00,0.092
380.50,0.091
381.00,0.091
381.50,0.090
382.00,0.089
382.50,0.089
383.00,0.088
383.50,0.088
384.00,0.087
384.50,0.087
385.00,0.086
385.50,0.086
386.00,0.085
386.50,0.085
387.00,0.084
387.50,0.084
388.00,0.083
388.50,0.083
389.00,0.082
389.50,0.082
390.00,0.081
390.50,0.081
391.00,0.080
391.50,0.080
392.00,0.079
392.50,0.079
393.00,0.078
393.50,0.078
394.00,0.077
394.50,0.077
395.00,0.076
395.50,0.076
396.00,0.075
396.50,0.075
397.00,0.074
397.50,0.074
398.00,0.074
398.50,0.073
399.00,0.073
399.50,0.072
400.00,0.072
400.50,0.072
401.00,0.071
401.50,0.071
402.00,0.070
402.50,0.070
403.00,0.070
403.50,0.069
404.00,0.069
404.50,0.068
405.00,0.068
405.50,0.067
406.00,0.067
406.50,0.066
407.00,0.066
407.50,0.066
408.00,0.065
408.50,0.065
409.00,0.064
409.50,0.064
410.00,0.064
410.50,0.063
411.00,0.063
411.50,0.062
412.00,0.062
412.50,0.061
413.00,0.061
413.50,0.061
414.00,0.060
414.50,0.060
415.00,0.059
415.50,0.059
416.00,0.059
416.50,0.058
417.00,0.057
417.50,0.057
418.00,0.056
418.50,0.056
419.00,0.056
419.50,0.055
420.00,0.055
420.50,0.054
421.00,0.054
421.50,0.054
422.00,0.053
422.50,0.053
423.00,0.052
423.50,0.052
424.00,0.052
424.50,0.051
425.00,0.051
425.50,0.051
426.00,0.050
426.50,0.050
427.00,0.049
427.50,0.049
428.00,0.048
428.50,0.048
429.00,0.047
429.50,0.047
430.00,0.047
430.50,0.046
431.00,0.046
431.50,0.045
432.00,0.045
432.50,0.045
433.00,0.044
433.50,0.044
434.00,0.043
434.50,0.043
435.00,0.042
435.50,0.042
436.00,0.042
436.50,0.041
437.00,0.041
437.50,0.041
438.00,0.040
438.50,0.040
439.00,0.040
439.50,0.039
440.00,0.039
440.50,0.038
441.00,0.038
441.50,0.038
442.00,0.037
442.50,0.037
443.00,0.037
443.50,0.037
444.00,0.036
444.50,0.036
445.00,0.036
445.50,0.036
446.00,0.035
446.50,0.035
447.00,0.035
447.50,0.034
448.00,0.034
448.50,0.034
449.00,0.034
449.50,0.034
450.00,0.034
450.50,0.033
451.00,0.033
451.50,0.033
452.00,0.033
452.50,0.033
453.00,0.033
453.50,0.033
454.00,0.032
454.50,0.032
455.00,0.032
455.50,0.032
456.00,0.032
456.50,0.032
457.00,0.032
457.50,0.032
458.00,0.032
458.50,0.032
459.00,0.032
459.50,0.032
460.00,0.032
460.50,0.032
461.00,0.032
461.50,0.032
462.00,0.032
462.50,0.032
463.00,0.032
463.50,0.033
464.00,0.033
464.50,0.033
465.00,0.033
465.50,0.033
466.00,0.033
466.50,0.033
467.00,0.034
467.50,0.034
468.00,0.034
468.50,0.034
469.00,0.035
469.50,0.035
470.00,0.035
470.50,0.035
471.00,0.036
471.50,0.036
472.00,0.036
472.50,0.037
473.00,0.037
473.50,0.037
474.00,0.037
474.50,0.038
475.00,0.038
475.50,0.038
476.00,0.039
476.50,0.039
477.00,0.040
477.50,0.040
478.00,0.041
478.50,0.041
479.00,0.041
479.50,0.042
480.00,0.042
480.50,0.043
481.00,0.043
481.50,0.044
482.00,0.044
482.50,0.045
483.00,0.045
483.50,0.045
484.00,0.046
484.50,0.046
485.00,0.047
485.50,0.047
486.00,0.048
486.50,0.048
487.00,0.049
487.50,0.049
488.00,0.049
488.50,0.050
489.00,0.050
489.50,0.051
490.00,0.051
490.50,0.052
491.00,0.052
491.50,0.052
492.00,0.053
492.50,0.053
493.00,0.053
493.50,0.054
494.00,0.054
494.50,0.054
495.00,0.055
495.50,0.055
496.00,0.055
496.50,0.055
497.00,0.056
497.50,0.056
498.00,0.056
498.50,0.056
499.00,0.056
499.50,0.057
500.00,0.057
500.50,0.057
501.00,0.057
501.50,0.057
502.00,0.057
502.50,0.057
503.00,0.057
503.50,0.057
504.00,0.057
504.50,0.057
505.00,0.057
505.50,0.057
506.00,0.057
506.50,0.057
507.00,0.057
507.50,0.056
508.00,0.056
508.50,0.056
509.00,0.056
509.50,0.055
510.00,0.055
510.50,0.055
511.00,0.054
511.50,0.054
512.00,0.054
512.50,0.053
513.00,0.053
513.50,0.052
514.00,0.052
514.50,0.051
515.00,0.051
515.50,0.050
516.00,0.050
516.50,0.049
517.00,0.049
517.50,0.048
518.00,0.048
518.50,0.047
519.00,0.047
519.50,0.046
520.00,0.045
520.50,0.044
521.00,0.044
521.50,0.043
522.00,0.043
522.50,0.045
523.00,0.045
523.50,0.045
524.00,0.044
524.50,0.044
525.00,0.042
525.50,0.040
526.00,0.038
526.50,0.036
527.00,0.035
527.50,0.033
528.00,0.032
528.50,0.031
529.00,0.031
529.50,0.030
530.00,0.029
530.50,0.030
531.00,0.029
531.50,0.029
532.00,0.029
532.50,0.029
533.00,0.028
533.50,0.027
534.00,0.026
534.50,0.026
535.00,0.025
535.50,0.024
536.00,0.023
536.50,0.022
537.00,0.021
537.50,0.020
538.00,0.020
538.50,0.019
539.00,0.018
539.50,0.018
540.00,0.017
540.50,0.016
541.00,0.016
541.50,0.015
542.00,0.015
542.50,0.015
543.00,0.015
543.50,0.015
544.00,0.014
544.50,0.014
545.00,0.013
545.50,0.013
546.00,0.012
546.50,0.012
547.00,0.011
547.50,0.010
548.00,0.010
548.50,0.009
549.00,0.009
549.50,0.008
550.00,0.008
550.50,0.009
551.00,0.009
551.50,0.009
552.00,0.009
552.50,0.009
553.00,0.008
553.50,0.007
554.00,0.006
554.50,0.006
555.00,0.006
555.50,0.005
556.00,0.005
556.50,0.005
557.00,0.004
557.50,0.004
558.00,0.004
558.50,0.004
559.00,0.003
559.50,0.003
560.00,0.003
560.50,0.003
561.00,0.003
561.50,0.004
562.00,0.004
562.50,0.004
563.00,0.005
563.50,0.004
564.00,0.004
564.50,0.004
565.00,0.004
565.50,0.004
566.00,0.004
566.50,0.003
567.00,0.003
567.50,0.003
568.00,0.003
568.50,0.003
569.00,0.002
569.50,0.002
570.00,0.002
570.50,0.002
571.00,0.002
571.50,0.002
572.00,0.002
572.50,0.002
573.00,0.002
573.50,0.002
574.00,0.002
574.50,0.002
575.00,0.002
575.50,0.002
576.00,0.002
576.50,0.001
577.00,0.001
577.50,0.001
578.00,0.001
578.50,0.001
579.00,0.001
579.50,0.001
580.00,0.001
580.50,0.001
581.00,0.001
581.50,0.001
582.00,0.001
582.50,0.001
583.00,0.001
583.50,0.001
584.00,0.001
584.50,0.001
585.00,0.001
585.50,0.001
586.00,0.001
586.50,0.001
587.00,0.001
587.50,0.000
588.00,0.000
588.50,0.000
589.00,0.000
589.50,0.000
590.00,0.000
590.50,0.000
591.00,0.000
591.50,0.000
592.00,0.000
592.50,0.000
593.00,0.000
593.50,0.000
594.00,0.000
594.50,0.000
595.00,0.000
595.50,0.000
596.00,0.000
596.50,0.000
597.00,0.000
597.50,0.000
598.00,0.000
598.50,0.000
599.00,0.000
599.50,0.000
600.00,0.000
600.50,0.000
601.00,0.000
601.50,0.000
602.00,0.000
602.50,0.000
603.00,0.000
603.50,0.001
604.00,0.001
604.50,0.001
605.00,0.000
605.50,0.001
606.00,0.001
606.50,0.001
607.00,0.001
607.50,0.001
608.00,0.000
608.50,0.000
609.00,0.000
609.50,0.000
610.00,0.000
610.50,0.000
611.00,0.000
611.50,0.000
612.00,0.000
612.50,0.000
613.00,0.000
613.50,0.000
614.00,0.000
614.50,0.000
615.00,0.000
615.50,0.000
616.00,0.000
616.50,0.000
617.00,0.000
617.50,0.000
618.00,0.000
618.50,0.000
619.00,0.000
619.50,0.000
620.00,0.000
620.50,0.000
621.00,0.000
621.50,0.000
622.00,0.000
622.50,0.000
623.00,0.000
623.50,0.000
624.00,0.000
624.50,0.000
625.00,0.000
625.50,0.000
626.00,0.000
626.50,0.000
627.00,0.000
627.50,0.000
628.00,0.000
628.50,0.000
629.00,0.000
629.50,0.000
630.00,0.000
630.50,0.000
631.00,0.000
631.50,0.000
632.00,0.000
632.50,0.000
633.00,0.000
633.50,0.000
634.00,0.000
634.50,0.000
635.00,0.000
635.50,0.000
636.00,0.000
636.50,0.000
637.00,0.000
637.50,0.000
638.00,0.000
638.50,0.000
639.00,0.000
639.50,0.000
640.00,0.000
640.50,0.000
641.00,0.000
641.50,0.000
642.00,0.000
642.50,0.000
643.00,0.000
643.50,-0.000
644.00,-0.000
644.50,-0.000
645.00,-0.000
645.50,-0.000
646.00,-0.000
646.50,-0.000
647.00,-0.000
647.50,0.000
648.00,-0.000
648.50,0.000
649.00,0.000
649.50,0.000
650.00,-0.000
650.50,-0.000
651.00,-0.000
651.50,-0.000
652.00,-0.000
652.50,-0.000
653.00,-0.000
653.50,-0.000
654.00,-0.000
654.50,-0.000
655.00,-0.000
655.50,-0.000
656.00,-0.000
656.50,-0.000
657.00,-0.000
657.50,-0.000
658.00,-0.000
658.50,-0.000
659.00,-0.000
659.50,-0.000
660.00,-0.000
660.50,-0.000
661.00,-0.000
661.50,-0.000
662.00,-0.000
662.50,-0.000
663.00,-0.000
663.50,-0.000
664.00,-0.000
664.50,-0.000
665.00,-0.000
665.50,-0.000
666.00,-0.000
666.50,-0.000
667.00,-0.000
667.50,-0.000
668.00,-0.000
668.50,-0.000
669.00,-0.000
669.50,0.000
670.00,-0.000
670.50,-0.000
671.00,-0.000
671.50,-0.000
672.00,-0.000
672.50,-0.000
673.00,-0.000
673.50,-0.000
674.00,-0.000
674.50,-0.000
675.00,-0.000
675.50,-0.000
676.00,-0.000
676.50,-0.000
677.00,-0.000
677.50,-0.000
678.00,-0.000
678.50,-0.000
679.00,-0.000
679.50,-0.000
680.00,-0.000
680.50,-0.000
681.00,-0.000
681.50,-0.000
682.00,-0.000
682.50,-0.000
683.00,-0.000
683.50,-0.000
684.00,-0.000
684.50,-0.000
685.00,-0.000
685.50,-0.000
686.00,-0.000
686.50,-0.000
687.00,-0.000
687.50,-0.000
688.00,-0.000
688.50,-0.000
689.00,-0.000
689.50,-0.000
690.00,-0.000
690.50,-0.000
691.00,-0.000
691.50,-0.000
692.00,-0.001
692.50,-0.000
693.00,-0.000
693.50,-0.000
694.00,-0.000
694.50,-0.000
695.00,-0.000
695.50,-0.000
696.00,-0.000
696.50,-0.000
697.00,-0.001
697.50,-0.001
698.00,-0.001
698.50,-0.001
699.00,-0.000
699.50,-0.000
700.00,-0.000
