"240C 600s - RawData"
"Wavelength nm.","Abs."
300.00,0.395
300.50,0.393
301.00,0.392
301.50,0.389
302.00,0.387
302.50,0.385
303.00,0.383
303.50,0.380
304.00,0.378
304.50,0.376
305.00,0.373
305.50,0.371
306.00,0.369
306.50,0.367
307.00,0.365
307.50,0.362
308.00,0.360
308.50,0.358
309.00,0.355
309.50,0.352
310.00,0.350
310.50,0.347
311.00,0.345
311.50,0.342
312.00,0.339
312.50,0.337
313.00,0.334
313.50,0.332
314.00,0.329
314.50,0.327
315.00,0.324
315.50,0.322
316.00,0.319
316.50,0.316
317.00,0.313
317.50,0.309
318.00,0.306
318.50,0.303
319.00,0.300
319.50,0.297
320.00,0.294
320.50,0.291
321.00,0.287
321.50,0.284
322.00,0.281
322.50,0.277
323.00,0.274
323.50,0.271
324.00,0.268
324.50,0.264
325.00,0.262
325.50,0.259
326.00,0.256
326.50,0.254
327.00,0.251
327.50,0.248
328.00,0.246
328.50,0.243
329.00,0.240
329.50,0.238
330.00,0.236
330.50,0.233
331.00,0.231
331.50,0.228
332.00,0.225
332.50,0.223
333.00,0.221
333.50,0.218
334.00,0.216
334.50,0.213
335.00,0.211
335.50,0.209
336.00,0.207
336.50,0.205
337.00,0.203
337.50,0.201
338.00,0.199
338.50,0.196
339.00,0.194
339.50,0.192
340.00,0.190
340.50,0.188
341.00,0.185
341.50,0.184
342.00,0.181
342.50,0.179
343.00,0.178
343.50,0.176
344.00,0.174
344.50,0.172
345.00,0.170
345.50,0.168
346.00,0.167
346.50,0.165
347.00,0.163
347.50,0.162
348.00,0.160
348.50,0.159
349.00,0.157
349.50,0.155
350.00,0.154
350.50,0.152
351.00,0.151
351.50,0.150
352.00,0.149
352.50,0.147
353.00,0.146
353.50,0.145
354.00,0.144
354.50,0.142
355.00,0.141
355.50,0.140
356.00,0.139
356.50,0.137
357.00,0.136
357.50,0.135
358.00,0.134
358.50,0.133
359.00,0.132
359.50,0.131
360.00,0.130
360.50,0.129
361.00,0.128
361.50,0.127
362.00,0.126
362.50,0.125
363.00,0.124
363.50,0.123
364.00,0.122
364.50,0.121
365.00,0.120
365.50,0.119
366.00,0.118
366.50,0.118
367.00,0.117
367.50,0.116
368.00,0.115
368.50,0.114
369.00,0.114
369.50,0.113
370.00,0.112
370.50,0.111
371.00,0.110
371.50,0.109
372.00,0.108
372.50,0.108
373.00,0.107
373.50,0.106
374.00,0.106
374.50,0.105
375.00,0.105
375.50,0.104
376.00,0.103
376.50,0.102
377.00,0.102
377.50,0.101
378.00,0.100
378.50,0.100
379.00,0.099
379.50,0.098
380.00,0.098
380.50,0.097
381.00,0.096
381.50,0.096
382.00,0.095
382.50,0.095
383.00,0.094
383.50,0.093
384.00,0.093
384.50,0.092
385.00,0.091
385.50,0.091
386.00,0.090
386.50,0.090
387.00,0.089
387.50,0.089
388.00,0.088
388.50,0.087
389.00,0.087
389.50,0.086
390.00,0.085
390.50,0.085
391.00,0.085
391.50,0.084
392.00,0.083
392.50,0.083
393.00,0.082
393.50,0.081
394.00,0.081
394.50,0.080
395.00,0.080
395.50,0.079
396.00,0.079
396.50,0.078
397.00,0.077
397.50,0.077
398.00,0.076
398.50,0.076
399.00,0.075
399.50,0.075
400.00,0.074
400.50,0.074
401.00,0.074
401.50,0.073
402.00,0.073
402.50,0.072
403.00,0.071
403.50,0.071
404.00,0.070
404.50,0.070
405.00,0.069
405.50,0.069
406.00,0.068
406.50,0.068
407.00,0.067
407.50,0.067
408.00,0.066
408.50,0.066
409.00,0.065
409.50,0.065
410.00,0.064
410.50,0.064
411.00,0.063
411.50,0.063
412.00,0.062
412.50,0.061
413.00,0.061
413.50,0.060
414.00,0.060
414.50,0.059
415.00,0.059
415.50,0.058
416.00,0.058
416.50,0.057
417.00,0.057
417.50,0.056
418.00,0.056
418.50,0.055
419.00,0.055
419.50,0.054
420.00,0.054
420.50,0.054
421.00,0.053
421.50,0.053
422.00,0.052
422.50,0.052
423.00,0.051
423.50,0.051
424.00,0.050
424.50,0.050
425.00,0.049
425.50,0.049
426.00,0.049
426.50,0.048
427.00,0.048
427.50,0.048
428.00,0.047
428.50,0.047
429.00,0.046
429.50,0.046
430.00,0.046
430.50,0.045
431.00,0.045
431.50,0.044
432.00,0.044
432.50,0.043
433.00,0.043
433.50,0.043
434.00,0.042
434.50,0.042
435.00,0.042
435.50,0.041
436.00,0.041
436.50,0.041
437.00,0.040
437.50,0.040
438.00,0.040
438.50,0.040
439.00,0.039
439.50,0.039
440.00,0.039
440.50,0.038
441.00,0.038
441.50,0.038
442.00,0.038
442.50,0.037
443.00,0.037
443.50,0.037
444.00,0.037
444.50,0.037
445.00,0.037
445.50,0.036
446.00,0.036
446.50,0.036
447.00,0.036
447.50,0.036
448.00,0.036
448.50,0.036
449.00,0.036
449.50,0.036
450.00,0.036
450.50,0.036
451.00,0.036
451.50,0.036
452.00,0.036
452.50,0.036
453.00,0.036
453.50,0.036
454.00,0.036
454.50,0.036
455.00,0.036
455.50,0.036
456.00,0.036
456.50,0.037
457.00,0.037
457.50,0.037
458.00,0.037
458.50,0.037
459.00,0.038
459.50,0.038
460.00,0.038
460.50,0.038
461.00,0.039
461.50,0.039
462.00,0.039
462.50,0.040
463.00,0.040
463.50,0.040
464.00,0.041
464.50,0.041
465.00,0.041
465.50,0.042
466.00,0.042
466.50,0.043
467.00,0.043
467.50,0.044
468.00,0.044
468.50,0.044
469.00,0.045
469.50,0.045
470.00,0.046
470.50,0.046
471.00,0.047
471.50,0.047
472.00,0.048
472.50,0.048
473.00,0.049
473.50,0.049
474.00,0.049
474.50,0.050
475.00,0.050
475.50,0.051
476.00,0.051
476.50,0.052
477.00,0.053
477.50,0.053
478.00,0.054
478.50,0.054
479.00,0.055
479.50,0.055
480.00,0.055
480.50,0.056
481.00,0.056
481.50,0.057
482.00,0.057
482.50,0.058
483.00,0.058
483.50,0.059
484.00,0.059
484.50,0.060
485.00,0.060
485.50,0.060
486.00,0.061
486.50,0.061
487.00,0.061
487.50,0.062
488.00,0.062
488.50,0.062
489.00,0.063
489.50,0.063
490.00,0.063
490.50,0.063
491.00,0.063
491.50,0.063
492.00,0.064
492.50,0.064
493.00,0.064
493.50,0.064
494.00,0.064
494.50,0.064
495.00,0.064
495.50,0.064
496.00,0.064
496.50,0.063
497.00,0.063
497.50,0.063
498.00,0.063
498.50,0.063
499.00,0.062
499.50,0.062
500.00,0.062
500.50,0.062
501.00,0.061
501.50,0.061
502.00,0.060
502.50,0.060
503.00,0.059
503.50,0.059
504.00,0.058
504.50,0.058
505.00,0.057
505.50,0.057
506.00,0.056
506.50,0.055
507.00,0.055
507.50,0.054
508.00,0.053
508.50,0.053
509.00,0.052
509.50,0.051
510.00,0.051
510.50,0.050
511.00,0.049
511.50,0.048
512.00,0.047
512.50,0.047
513.00,0.046
513.50,0.045
514.00,0.044
514.50,0.043
515.00,0.043
515.50,0.042
516.00,0.041
516.50,0.040
517.00,0.039
517.50,0.038
518.00,0.037
518.50,0.036
519.00,0.035
519.50,0.034
520.00,0.034
520.50,0.033
521.00,0.032
521.50,0.031
522.00,0.030
522.50,0.029
523.00,0.028
523.50,0.027
524.00,0.026
524.50,0.026
525.00,0.025
525.50,0.024
526.00,0.023
526.50,0.022
527.00,0.021
527.50,0.021
528.00,0.020
528.50,0.019
529.00,0.018
529.50,0.017
530.00,0.017
530.50,0.016
531.00,0.015
531.50,0.015
532.00,0.014
532.50,0.013
533.00,0.013
533.50,0.012
534.00,0.012
534.50,0.011
535.00,0.011
535.50,0.010
536.00,0.010
536.50,0.009
537.00,0.009
537.50,0.008
538.00,0.008
538.50,0.007
539.00,0.007
539.50,0.007
540.00,0.006
540.50,0.006
541.00,0.006
541.50,0.005
542.00,0.005
542.50,0.005
543.00,0.004
543.50,0.004
544.00,0.004
544.50,0.003
545.00,0.003
545.50,0.003
546.00,0.003
546.50,0.003
547.00,0.002
547.50,0.002
548.00,0.002
548.50,0.002
549.00,0.002
549.50,0.001
550.00,0.001
550.50,0.001
551.00,0.001
551.50,0.001
552.00,0.001
552.50,0.001
553.00,0.001
553.50,0.000
554.00,0.000
554.50,0.000
555.00,0.000
555.50,0.000
556.00,-0.000
556.50,0.000
557.00,0.000
557.50,0.000
558.00,-0.000
558.50,-0.000
559.00,-0.000
559.50,-0.000
560.00,-0.000
560.50,-0.000
561.00,-0.000
561.50,-0.000
562.00,-0.000
562.50,-0.000
563.00,-0.000
563.50,-0.001
564.00,-0.001
564.50,-0.001
565.00,-0.001
565.50,-0.001
566.00,-0.001
566.50,-0.001
567.00,-0.001
567.50,-0.001
568.00,-0.001
568.50,-0.001
569.00,-0.001
569.50,-0.001
570.00,-0.001
570.50,-0.001
571.00,-0.001
571.50,-0.001
572.00,-0.001
572.50,-0.001
573.00,-0.001
573.50,-0.001
574.00,-0.001
574.50,-0.001
575.00,-0.001
575.50,-0.001
576.00,-0.001
576.50,-0.001
577.00,-0.001
577.50,-0.001
578.00,-0.001
578.50,-0.001
579.00,-0.001
579.50,-0.001
580.00,-0.001
580.50,-0.001
581.00,-0.001
581.50,-0.001
582.00,-0.001
582.50,-0.001
583.00,-0.001
583.50,-0.001
584.00,-0.001
584.50,-0.001
585.00,-0.001
585.50,-0.001
586.00,-0.001
586.50,-0.001
587.00,-0.001
587.50,-0.001
588.00,-0.001
588.50,-0.001
589.00,-0.001
589.50,-0.001
590.00,-0.001
590.50,-0.001
591.00,-0.001
591.50,-0.001
592.00,-0.001
592.50,-0.001
593.00,-0.001
593.50,-0.001
594.00,-0.001
594.50,-0.001
595.00,-0.001
595.50,-0.001
596.00,-0.001
596.50,-0.001
597.00,-0.001
597.50,-0.001
598.00,-0.001
598.50,-0.001
599.00,-0.001
599.50,-0.001
600.00,-0.001
600.50,-0.001
601.00,-0.001
601.50,-0.001
602.00,-0.001
602.50,-0.001
603.00,-0.001
603.50,-0.001
604.00,-0.001
604.50,-0.001
605.00,-0.001
605.50,-0.001
606.00,-0.001
606.50,-0.001
607.00,-0.001
607.50,-0.001
608.00,-0.001
608.50,-0.001
609.00,-0.001
609.50,-0.001
610.00,-0.001
610.50,-0.001
611.00,-0.001
611.50,-0.001
612.00,-0.001
612.50,-0.001
613.00,-0.001
613.50,-0.001
614.00,-0.001
614.50,-0.001
615.00,-0.001
615.50,-0.001
616.00,-0.001
616.50,-0.001
617.00,-0.001
617.50,-0.001
618.00,-0.001
618.50,-0.001
619.00,-0.001
619.50,-0.001
620.00,-0.001
620.50,-0.001
621.00,-0.001
621.50,-0.001
622.00,-0.001
622.50,-0.001
623.00,-0.001
623.50,-0.001
624.00,-0.001
624.50,-0.001
625.00,-0.001
625.50,-0.001
626.00,-0.001
626.50,-0.001
627.00,-0.001
627.50,-0.001
628.00,-0.001
628.50,-0.001
629.00,-0.001
629.50,-0.001
630.00,-0.001
630.50,-0.001
631.00,-0.001
631.50,-0.001
632.00,-0.001
632.50,-0.001
633.00,-0.001
633.50,-0.001
634.00,-0.001
634.50,-0.001
635.00,-0.001
635.50,-0.001
636.00,-0.001
636.50,-0.001
637.00,-0.001
637.50,-0.001
638.00,-0.001
638.50,-0.001
639.00,-0.001
639.50,-0.001
640.00,-0.001
640.50,-0.001
641.00,-0.001
641.50,-0.001
642.00,-0.001
642.50,-0.001
643.00,-0.001
643.50,-0.001
644.00,-0.001
644.50,-0.001
645.00,-0.001
645.50,-0.001
646.00,-0.001
646.50,-0.001
647.00,-0.001
647.50,-0.001
648.00,-0.001
648.50,-0.001
649.00,-0.001
649.50,-0.001
650.00,-0.001
650.50,-0.001
651.00,-0.001
651.50,-0.001
652.00,-0.001
652.50,-0.001
653.00,-0.001
653.50,-0.001
654.00,-0.001
654.50,-0.001
655.00,-0.001
655.50,-0.001
656.00,-0.001
656.50,-0.001
657.00,-0.001
657.50,-0.001
658.00,-0.001
658.50,-0.001
659.00,-0.001
659.50,-0.001
660.00,-0.001
660.50,-0.001
661.00,-0.001
661.50,-0.001
662.00,-0.001
662.50,-0.001
663.00,-0.001
663.50,-0.001
664.00,-0.001
664.50,-0.001
665.00,-0.001
665.50,-0.001
666.00,-0.001
666.50,-0.001
667.00,-0.001
667.50,-0.001
668.00,-0.001
668.50,-0.001
669.00,-0.001
669.50,-0.001
670.00,-0.001
670.50,-0.001
671.00,-0.001
671.50,-0.001
672.00,-0.001
672.50,-0.001
673.00,-0.001
673.50,-0.001
674.00,-0.001
674.50,-0.001
675.00,-0.001
675.50,-0.001
676.00,-0.001
676.50,-0.001
677.00,-0.001
677.50,-0.001
678.00,-0.001
678.50,-0.001
679.00,-0.001
679.50,-0.001
680.00,-0.001
680.50,-0.001
681.00,-0.001
681.50,-0.001
682.00,-0.001
682.50,-0.001
683.00,-0.001
683.50,-0.001
684.00,-0.001
684.50,-0.001
685.00,-0.001
685.50,-0.001
686.00,-0.001
686.50,-0.001
687.00,-0.001
687.50,-0.001
688.00,-0.001
688.50,-0.001
689.00,-0.001
689.50,-0.001
690.00,-0.001
690.50,-0.001
691.00,-0.001
691.50,-0.001
692.00,-0.001
692.50,-0.001
693.00,-0.001
693.50,-0.001
694.00,-0.001
694.50,-0.001
695.00,-0.001
695.50,-0.001
696.00,-0.001
696.50,-0.001
697.00,-0.001
697.50,-0.001
698.00,-0.001
698.50,-0.001
699.00,-0.001
699.50,-0.001
700.00,-0.001
