"260C 150s2 - RawData"
"Wavelength nm.","Abs."
300.00,0.347
300.50,0.346
301.00,0.344
301.50,0.343
302.00,0.341
302.50,0.339
303.00,0.337
303.50,0.335
304.00,0.333
304.50,0.331
305.00,0.329
305.50,0.327
306.00,0.325
306.50,0.323
307.00,0.321
307.50,0.319
308.00,0.317
308.50,0.316
309.00,0.314
309.50,0.312
310.00,0.310
310.50,0.308
311.00,0.306
311.50,0.303
312.00,0.302
312.50,0.299
313.00,0.297
313.50,0.295
314.00,0.292
314.50,0.290
315.00,0.288
315.50,0.287
316.00,0.284
316.50,0.282
317.00,0.279
317.50,0.276
318.00,0.273
318.50,0.270
319.00,0.268
319.50,0.265
320.00,0.262
320.50,0.259
321.00,0.257
321.50,0.254
322.00,0.252
322.50,0.249
323.00,0.247
323.50,0.245
324.00,0.243
324.50,0.241
325.00,0.239
325.50,0.236
326.00,0.233
326.50,0.231
327.00,0.228
327.50,0.226
328.00,0.224
328.50,0.221
329.00,0.219
329.50,0.216
330.00,0.214
330.50,0.211
331.00,0.210
331.50,0.207
332.00,0.205
332.50,0.203
333.00,0.201
333.50,0.199
334.00,0.197
334.50,0.195
335.00,0.193
335.50,0.191
336.00,0.188
336.50,0.186
337.00,0.184
337.50,0.182
338.00,0.180
338.50,0.179
339.00,0.177
339.50,0.174
340.00,0.173
340.50,0.171
341.00,0.169
341.50,0.167
342.00,0.166
342.50,0.164
343.00,0.162
343.50,0.160
344.00,0.159
344.50,0.157
345.00,0.156
345.50,0.154
346.00,0.153
346.50,0.151
347.00,0.150
347.50,0.148
348.00,0.146
348.50,0.145
349.00,0.144
349.50,0.142
350.00,0.141
350.50,0.140
351.00,0.139
351.50,0.137
352.00,0.136
352.50,0.135
353.00,0.134
353.50,0.133
354.00,0.131
354.50,0.131
355.00,0.129
355.50,0.128
356.00,0.127
356.50,0.126
357.00,0.125
357.50,0.124
358.00,0.123
358.50,0.122
359.00,0.121
359.50,0.120
360.00,0.119
360.50,0.118
361.00,0.117
361.50,0.116
362.00,0.116
362.50,0.115
363.00,0.114
363.50,0.113
364.00,0.112
364.50,0.112
365.00,0.111
365.50,0.110
366.00,0.109
366.50,0.108
367.00,0.107
367.50,0.107
368.00,0.106
368.50,0.105
369.00,0.105
369.50,0.104
370.00,0.103
370.50,0.102
371.00,0.102
371.50,0.101
372.00,0.100
372.50,0.099
373.00,0.099
373.50,0.098
374.00,0.097
374.50,0.097
375.00,0.096
375.50,0.095
376.00,0.095
376.50,0.094
377.00,0.093
377.50,0.093
378.00,0.092
378.50,0.092
379.00,0.091
379.50,0.091
380.00,0.090
380.50,0.089
381.00,0.089
381.50,0.088
382.00,0.088
382.50,0.087
383.00,0.087
383.50,0.086
384.00,0.085
384.50,0.085
385.00,0.084
385.50,0.083
386.00,0.083
386.50,0.082
387.00,0.082
387.50,0.082
388.00,0.081
388.50,0.081
389.00,0.080
389.50,0.079
390.00,0.079
390.50,0.078
391.00,0.078
391.50,0.077
392.00,0.077
392.50,0.076
393.00,0.075
393.50,0.075
394.00,0.075
394.50,0.074
395.00,0.074
395.50,0.073
396.00,0.072
396.50,0.072
397.00,0.071
397.50,0.071
398.00,0.070
398.50,0.070
399.00,0.069
399.50,0.069
400.00,0.068
400.50,0.068
401.00,0.068
401.50,0.067
402.00,0.067
402.50,0.066
403.00,0.066
403.50,0.065
404.00,0.065
404.50,0.064
405.00,0.064
405.50,0.063
406.00,0.063
406.50,0.062
407.00,0.061
407.50,0.061
408.00,0.061
408.50,0.060
409.00,0.060
409.50,0.059
410.00,0.059
410.50,0.058
411.00,0.058
411.50,0.057
412.00,0.057
412.50,0.056
413.00,0.056
413.50,0.055
414.00,0.055
414.50,0.054
415.00,0.054
415.50,0.053
416.00,0.053
416.50,0.052
417.00,0.052
417.50,0.051
418.00,0.051
418.50,0.051
419.00,0.050
419.50,0.050
420.00,0.049
420.50,0.049
421.00,0.049
421.50,0.048
422.00,0.048
422.50,0.047
423.00,0.047
423.50,0.046
424.00,0.046
424.50,0.046
425.00,0.045
425.50,0.045
426.00,0.044
426.50,0.044
427.00,0.044
427.50,0.043
428.00,0.043
428.50,0.043
429.00,0.042
429.50,0.042
430.00,0.042
430.50,0.041
431.00,0.041
431.50,0.041
432.00,0.040
432.50,0.040
433.00,0.039
433.50,0.039
434.00,0.039
434.50,0.039
435.00,0.038
435.50,0.038
436.00,0.038
436.50,0.037
437.00,0.037
437.50,0.037
438.00,0.036
438.50,0.036
439.00,0.036
439.50,0.036
440.00,0.036
440.50,0.035
441.00,0.035
441.50,0.035
442.00,0.035
442.50,0.035
443.00,0.034
443.50,0.034
444.00,0.034
444.50,0.034
445.00,0.034
445.50,0.034
446.00,0.034
446.50,0.033
447.00,0.033
447.50,0.033
448.00,0.033
448.50,0.033
449.00,0.033
449.50,0.033
450.00,0.033
450.50,0.033
451.00,0.033
451.50,0.033
452.00,0.033
452.50,0.033
453.00,0.033
453.50,0.033
454.00,0.033
454.50,0.033
455.00,0.033
455.50,0.034
456.00,0.034
456.50,0.034
457.00,0.034
457.50,0.034
458.00,0.034
458.50,0.034
459.00,0.034
459.50,0.035
460.00,0.035
460.50,0.035
461.00,0.036
461.50,0.036
462.00,0.036
462.50,0.036
463.00,0.037
463.50,0.037
464.00,0.037
464.50,0.038
465.00,0.038
465.50,0.039
466.00,0.039
466.50,0.039
467.00,0.040
467.50,0.040
468.00,0.040
468.50,0.041
469.00,0.041
469.50,0.042
470.00,0.042
470.50,0.043
471.00,0.043
471.50,0.044
472.00,0.044
472.50,0.044
473.00,0.045
473.50,0.045
474.00,0.046
474.50,0.046
475.00,0.047
475.50,0.047
476.00,0.048
476.50,0.048
477.00,0.049
477.50,0.049
478.00,0.050
478.50,0.050
479.00,0.050
479.50,0.051
480.00,0.051
480.50,0.052
481.00,0.052
481.50,0.053
482.00,0.053
482.50,0.053
483.00,0.054
483.50,0.054
484.00,0.055
484.50,0.055
485.00,0.056
485.50,0.056
486.00,0.056
486.50,0.056
487.00,0.057
487.50,0.057
488.00,0.057
488.50,0.057
489.00,0.058
489.50,0.058
490.00,0.058
490.50,0.058
491.00,0.058
491.50,0.058
492.00,0.058
492.50,0.059
493.00,0.059
493.50,0.059
494.00,0.059
494.50,0.059
495.00,0.059
495.50,0.058
496.00,0.058
496.50,0.058
497.00,0.058
497.50,0.058
498.00,0.058
498.50,0.057
499.00,0.057
499.50,0.057
500.00,0.057
500.50,0.056
501.00,0.056
501.50,0.055
502.00,0.055
502.50,0.055
503.00,0.054
503.50,0.054
504.00,0.053
504.50,0.052
505.00,0.052
505.50,0.051
506.00,0.051
506.50,0.050
507.00,0.049
507.50,0.049
508.00,0.048
508.50,0.047
509.00,0.047
509.50,0.046
510.00,0.046
510.50,0.045
511.00,0.044
511.50,0.043
512.00,0.042
512.50,0.042
513.00,0.041
513.50,0.040
514.00,0.039
514.50,0.039
515.00,0.038
515.50,0.037
516.00,0.036
516.50,0.035
517.00,0.035
517.50,0.034
518.00,0.033
518.50,0.032
519.00,0.031
519.50,0.031
520.00,0.030
520.50,0.029
521.00,0.028
521.50,0.027
522.00,0.027
522.50,0.026
523.00,0.025
523.50,0.024
524.00,0.023
524.50,0.023
525.00,0.022
525.50,0.021
526.00,0.020
526.50,0.020
527.00,0.019
527.50,0.018
528.00,0.017
528.50,0.017
529.00,0.016
529.50,0.015
530.00,0.015
530.50,0.014
531.00,0.014
531.50,0.013
532.00,0.012
532.50,0.012
533.00,0.011
533.50,0.011
534.00,0.010
534.50,0.010
535.00,0.010
535.50,0.009
536.00,0.009
536.50,0.008
537.00,0.008
537.50,0.008
538.00,0.007
538.50,0.007
539.00,0.007
539.50,0.006
540.00,0.006
540.50,0.006
541.00,0.006
541.50,0.005
542.00,0.005
542.50,0.005
543.00,0.004
543.50,0.004
544.00,0.004
544.50,0.004
545.00,0.004
545.50,0.003
546.00,0.003
546.50,0.003
547.00,0.003
547.50,0.003
548.00,0.002
548.50,0.002
549.00,0.002
549.50,0.002
550.00,0.002
550.50,0.002
551.00,0.002
551.50,0.002
552.00,0.002
552.50,0.002
553.00,0.001
553.50,0.001
554.00,0.001
554.50,0.001
555.00,0.001
555.50,0.001
556.00,0.001
556.50,0.001
557.00,0.001
557.50,0.001
558.00,0.001
558.50,0.001
559.00,0.001
559.50,0.000
560.00,0.000
560.50,0.001
561.00,0.001
561.50,0.001
562.00,0.001
562.50,0.000
563.00,0.000
563.50,0.000
564.00,0.000
564.50,0.000
565.00,0.000
565.50,0.000
566.00,0.000
566.50,0.000
567.00,0.000
567.50,0.000
568.00,0.000
568.50,0.000
569.00,0.000
569.50,0.000
570.00,0.000
570.50,0.000
571.00,0.000
571.50,0.000
572.00,0.000
572.50,0.000
573.00,0.000
573.50,0.000
574.00,0.000
574.50,0.000
575.00,0.000
575.50,0.000
576.00,0.000
576.50,0.000
577.00,0.000
577.50,0.000
578.00,0.000
578.50,0.000
579.00,0.000
579.50,0.000
580.00,0.000
580.50,0.000
581.00,-0.000
581.50,-0.000
582.00,-0.000
582.50,-0.000
583.00,-0.000
583.50,-0.000
584.00,-0.000
584.50,-0.000
585.00,-0.000
585.50,-0.000
586.00,-0.000
586.50,-0.000
587.00,-0.000
587.50,-0.000
588.00,-0.000
588.50,-0.000
589.00,0.000
589.50,0.000
590.00,0.000
590.50,0.000
591.00,0.000
591.50,0.000
592.00,0.000
592.50,0.000
593.00,0.000
593.50,0.000
594.00,0.000
594.50,0.000
595.00,-0.000
595.50,-0.000
596.00,-0.000
596.50,0.000
597.00,0.000
597.50,0.000
598.00,0.000
598.50,-0.000
599.00,-0.000
599.50,-0.000
600.00,-0.000
600.50,-0.000
601.00,-0.000
601.50,-0.000
602.00,-0.000
602.50,-0.000
603.00,-0.000
603.50,-0.000
604.00,-0.000
604.50,-0.000
605.00,-0.000
605.50,-0.000
606.00,0.000
606.50,0.000
607.00,0.000
607.50,-0.000
608.00,0.000
608.50,-0.000
609.00,-0.000
609.50,-0.000
610.00,0.000
610.50,-0.000
611.00,-0.000
611.50,-0.000
612.00,-0.000
612.50,-0.000
613.00,-0.000
613.50,-0.000
614.00,-0.000
614.50,0.000
615.00,0.000
615.50,-0.000
616.00,-0.000
616.50,-0.000
617.00,-0.000
617.50,-0.000
618.00,-0.000
618.50,-0.000
619.00,-0.000
619.50,-0.000
620.00,-0.000
620.50,-0.000
621.00,-0.000
621.50,-0.000
622.00,-0.000
622.50,-0.000
623.00,-0.000
623.50,-0.000
624.00,-0.000
624.50,-0.000
625.00,-0.000
625.50,-0.000
626.00,-0.000
626.50,-0.000
627.00,-0.000
627.50,-0.000
628.00,-0.000
628.50,-0.000
629.00,-0.000
629.50,-0.000
630.00,-0.000
630.50,0.000
631.00,-0.000
631.50,0.000
632.00,-0.000
632.50,-0.000
633.00,-0.000
633.50,-0.000
634.00,-0.000
634.50,-0.000
635.00,-0.000
635.50,-0.000
636.00,-0.000
636.50,-0.000
637.00,-0.000
637.50,-0.000
638.00,-0.000
638.50,-0.000
639.00,-0.000
639.50,-0.000
640.00,-0.000
640.50,-0.000
641.00,-0.000
641.50,-0.000
642.00,-0.000
642.50,-0.000
643.00,-0.000
643.50,-0.000
644.00,-0.000
644.50,-0.000
645.00,-0.000
645.50,-0.000
646.00,-0.000
646.50,-0.000
647.00,-0.000
647.50,-0.000
648.00,-0.000
648.50,-0.000
649.00,-0.000
649.50,-0.000
650.00,-0.000
650.50,-0.000
651.00,-0.000
651.50,-0.000
652.00,-0.000
652.50,-0.000
653.00,-0.000
653.50,-0.000
654.00,-0.000
654.50,-0.000
655.00,-0.000
655.50,-0.000
656.00,-0.000
656.50,-0.000
657.00,-0.000
657.50,-0.000
658.00,-0.000
658.50,-0.000
659.00,-0.000
659.50,-0.000
660.00,-0.000
660.50,-0.000
661.00,-0.000
661.50,-0.000
662.00,-0.000
662.50,-0.000
663.00,-0.000
663.50,-0.001
664.00,-0.001
664.50,-0.001
665.00,-0.001
665.50,-0.000
666.00,-0.000
666.50,-0.000
667.00,-0.000
667.50,-0.000
668.00,-0.000
668.50,-0.000
669.00,-0.000
669.50,-0.000
670.00,-0.000
670.50,-0.000
671.00,-0.000
671.50,-0.000
672.00,-0.000
672.50,-0.000
673.00,-0.000
673.50,-0.000
674.00,-0.000
674.50,-0.000
675.00,-0.000
675.50,-0.000
676.00,-0.000
676.50,-0.000
677.00,0.000
677.50,-0.000
678.00,-0.000
678.50,-0.000
679.00,-0.000
679.50,-0.000
680.00,-0.000
680.50,-0.000
681.00,-0.000
681.50,-0.000
682.00,-0.000
682.50,-0.000
683.00,-0.000
683.50,-0.000
684.00,-0.000
684.50,-0.000
685.00,-0.000
685.50,-0.000
686.00,-0.000
686.50,-0.000
687.00,-0.000
687.50,-0.000
688.00,-0.000
688.50,-0.000
689.00,-0.000
689.50,-0.000
690.00,-0.000
690.50,-0.000
691.00,-0.000
691.50,-0.000
692.00,-0.000
692.50,-0.000
693.00,-0.000
693.50,-0.000
694.00,-0.000
694.50,-0.000
695.00,-0.001
695.50,-0.001
696.00,-0.001
696.50,-0.000
697.00,-0.000
697.50,-0.000
698.00,-0.000
698.50,-0.000
699.00,-0.000
699.50,-0.000
700.00,-0.000
