"260C 600s - RawData"
"Wavelength nm.","Abs."
300.00,0.382
300.50,0.381
301.00,0.380
301.50,0.378
302.00,0.376
302.50,0.374
303.00,0.372
303.50,0.370
304.00,0.368
304.50,0.366
305.00,0.363
305.50,0.361
306.00,0.359
306.50,0.358
307.00,0.356
307.50,0.354
308.00,0.351
308.50,0.349
309.00,0.346
309.50,0.344
310.00,0.341
310.50,0.339
311.00,0.336
311.50,0.334
312.00,0.332
312.50,0.329
313.00,0.327
313.50,0.325
314.00,0.322
314.50,0.320
315.00,0.318
315.50,0.316
316.00,0.313
316.50,0.310
317.00,0.307
317.50,0.304
318.00,0.300
318.50,0.297
319.00,0.295
319.50,0.292
320.00,0.289
320.50,0.287
321.00,0.283
321.50,0.280
322.00,0.277
322.50,0.274
323.00,0.271
323.50,0.268
324.00,0.265
324.50,0.262
325.00,0.259
325.50,0.256
326.00,0.253
326.50,0.251
327.00,0.248
327.50,0.245
328.00,0.243
328.50,0.240
329.00,0.238
329.50,0.236
330.00,0.233
330.50,0.231
331.00,0.228
331.50,0.226
332.00,0.224
332.50,0.221
333.00,0.219
333.50,0.216
334.00,0.214
334.50,0.212
335.00,0.209
335.50,0.207
336.00,0.205
336.50,0.203
337.00,0.201
337.50,0.199
338.00,0.196
338.50,0.195
339.00,0.192
339.50,0.190
340.00,0.188
340.50,0.186
341.00,0.184
341.50,0.182
342.00,0.180
342.50,0.178
343.00,0.176
343.50,0.174
344.00,0.173
344.50,0.171
345.00,0.169
345.50,0.168
346.00,0.166
346.50,0.164
347.00,0.163
347.50,0.161
348.00,0.159
348.50,0.157
349.00,0.156
349.50,0.154
350.00,0.153
350.50,0.151
351.00,0.150
351.50,0.149
352.00,0.147
352.50,0.146
353.00,0.145
353.50,0.144
354.00,0.142
354.50,0.141
355.00,0.140
355.50,0.139
356.00,0.137
356.50,0.136
357.00,0.135
357.50,0.134
358.00,0.133
358.50,0.132
359.00,0.131
359.50,0.130
360.00,0.129
360.50,0.128
361.00,0.127
361.50,0.126
362.00,0.125
362.50,0.124
363.00,0.123
363.50,0.122
364.00,0.121
364.50,0.120
365.00,0.119
365.50,0.118
366.00,0.117
366.50,0.116
367.00,0.115
367.50,0.114
368.00,0.113
368.50,0.113
369.00,0.113
369.50,0.112
370.00,0.111
370.50,0.110
371.00,0.109
371.50,0.108
372.00,0.107
372.50,0.107
373.00,0.106
373.50,0.105
374.00,0.105
374.50,0.104
375.00,0.103
375.50,0.102
376.00,0.102
376.50,0.101
377.00,0.101
377.50,0.100
378.00,0.099
378.50,0.099
379.00,0.098
379.50,0.098
380.00,0.097
380.50,0.096
381.00,0.096
381.50,0.095
382.00,0.095
382.50,0.094
383.00,0.094
383.50,0.093
384.00,0.092
384.50,0.092
385.00,0.091
385.50,0.090
386.00,0.090
386.50,0.089
387.00,0.088
387.50,0.088
388.00,0.087
388.50,0.087
389.00,0.087
389.50,0.086
390.00,0.085
390.50,0.085
391.00,0.084
391.50,0.084
392.00,0.083
392.50,0.083
393.00,0.082
393.50,0.081
394.00,0.081
394.50,0.081
395.00,0.080
395.50,0.080
396.00,0.079
396.50,0.078
397.00,0.078
397.50,0.077
398.00,0.077
398.50,0.076
399.00,0.076
399.50,0.075
400.00,0.075
400.50,0.075
401.00,0.074
401.50,0.074
402.00,0.073
402.50,0.073
403.00,0.073
403.50,0.072
404.00,0.071
404.50,0.071
405.00,0.070
405.50,0.070
406.00,0.069
406.50,0.069
407.00,0.068
407.50,0.068
408.00,0.067
408.50,0.067
409.00,0.066
409.50,0.066
410.00,0.065
410.50,0.065
411.00,0.064
411.50,0.064
412.00,0.063
412.50,0.063
413.00,0.062
413.50,0.062
414.00,0.061
414.50,0.061
415.00,0.060
415.50,0.060
416.00,0.059
416.50,0.059
417.00,0.058
417.50,0.058
418.00,0.058
418.50,0.057
419.00,0.057
419.50,0.056
420.00,0.056
420.50,0.055
421.00,0.055
421.50,0.054
422.00,0.054
422.50,0.053
423.00,0.053
423.50,0.052
424.00,0.052
424.50,0.051
425.00,0.051
425.50,0.050
426.00,0.050
426.50,0.050
427.00,0.049
427.50,0.049
428.00,0.048
428.50,0.048
429.00,0.048
429.50,0.047
430.00,0.047
430.50,0.046
431.00,0.046
431.50,0.046
432.00,0.045
432.50,0.045
433.00,0.044
433.50,0.044
434.00,0.043
434.50,0.043
435.00,0.043
435.50,0.042
436.00,0.042
436.50,0.042
437.00,0.041
437.50,0.041
438.00,0.041
438.50,0.040
439.00,0.040
439.50,0.040
440.00,0.040
440.50,0.039
441.00,0.039
441.50,0.039
442.00,0.038
442.50,0.038
443.00,0.038
443.50,0.038
444.00,0.037
444.50,0.037
445.00,0.037
445.50,0.037
446.00,0.037
446.50,0.036
447.00,0.036
447.50,0.036
448.00,0.036
448.50,0.036
449.00,0.036
449.50,0.035
450.00,0.035
450.50,0.035
451.00,0.035
451.50,0.035
452.00,0.035
452.50,0.035
453.00,0.035
453.50,0.035
454.00,0.035
454.50,0.035
455.00,0.035
455.50,0.035
456.00,0.035
456.50,0.035
457.00,0.035
457.50,0.035
458.00,0.035
458.50,0.035
459.00,0.035
459.50,0.035
460.00,0.035
460.50,0.035
461.00,0.036
461.50,0.036
462.00,0.036
462.50,0.036
463.00,0.037
463.50,0.037
464.00,0.037
464.50,0.037
465.00,0.037
465.50,0.038
466.00,0.038
466.50,0.038
467.00,0.039
467.50,0.039
468.00,0.039
468.50,0.040
469.00,0.040
469.50,0.040
470.00,0.041
470.50,0.041
471.00,0.042
471.50,0.042
472.00,0.042
472.50,0.043
473.00,0.043
473.50,0.044
474.00,0.044
474.50,0.044
475.00,0.045
475.50,0.045
476.00,0.046
476.50,0.046
477.00,0.047
477.50,0.047
478.00,0.048
478.50,0.048
479.00,0.049
479.50,0.049
480.00,0.050
480.50,0.050
481.00,0.050
481.50,0.051
482.00,0.052
482.50,0.052
483.00,0.053
483.50,0.053
484.00,0.054
484.50,0.054
485.00,0.055
485.50,0.055
486.00,0.056
486.50,0.056
487.00,0.056
487.50,0.057
488.00,0.057
488.50,0.058
489.00,0.058
489.50,0.058
490.00,0.059
490.50,0.059
491.00,0.059
491.50,0.060
492.00,0.060
492.50,0.060
493.00,0.060
493.50,0.060
494.00,0.061
494.50,0.061
495.00,0.061
495.50,0.061
496.00,0.061
496.50,0.061
497.00,0.062
497.50,0.062
498.00,0.062
498.50,0.062
499.00,0.062
499.50,0.062
500.00,0.061
500.50,0.061
501.00,0.061
501.50,0.061
502.00,0.061
502.50,0.061
503.00,0.060
503.50,0.060
504.00,0.060
504.50,0.060
505.00,0.059
505.50,0.059
506.00,0.058
506.50,0.058
507.00,0.058
507.50,0.057
508.00,0.057
508.50,0.056
509.00,0.056
509.50,0.055
510.00,0.055
510.50,0.054
511.00,0.053
511.50,0.053
512.00,0.052
512.50,0.051
513.00,0.051
513.50,0.050
514.00,0.049
514.50,0.049
515.00,0.048
515.50,0.047
516.00,0.047
516.50,0.046
517.00,0.045
517.50,0.044
518.00,0.043
518.50,0.043
519.00,0.042
519.50,0.041
520.00,0.040
520.50,0.039
521.00,0.038
521.50,0.038
522.00,0.037
522.50,0.036
523.00,0.035
523.50,0.034
524.00,0.033
524.50,0.032
525.00,0.031
525.50,0.030
526.00,0.030
526.50,0.029
527.00,0.028
527.50,0.027
528.00,0.026
528.50,0.025
529.00,0.024
529.50,0.024
530.00,0.023
530.50,0.022
531.00,0.021
531.50,0.020
532.00,0.020
532.50,0.019
533.00,0.018
533.50,0.018
534.00,0.017
534.50,0.016
535.00,0.016
535.50,0.015
536.00,0.014
536.50,0.014
537.00,0.013
537.50,0.013
538.00,0.012
538.50,0.011
539.00,0.011
539.50,0.010
540.00,0.010
540.50,0.010
541.00,0.009
541.50,0.009
542.00,0.008
542.50,0.008
543.00,0.007
543.50,0.007
544.00,0.007
544.50,0.006
545.00,0.006
545.50,0.005
546.00,0.005
546.50,0.005
547.00,0.005
547.50,0.004
548.00,0.004
548.50,0.004
549.00,0.004
549.50,0.003
550.00,0.003
550.50,0.003
551.00,0.003
551.50,0.002
552.00,0.002
552.50,0.002
553.00,0.002
553.50,0.002
554.00,0.002
554.50,0.002
555.00,0.001
555.50,0.001
556.00,0.001
556.50,0.001
557.00,0.001
557.50,0.001
558.00,0.001
558.50,0.001
559.00,0.001
559.50,0.001
560.00,0.001
560.50,0.001
561.00,0.000
561.50,0.000
562.00,0.000
562.50,0.000
563.00,0.000
563.50,0.000
564.00,-0.000
564.50,-0.000
565.00,-0.000
565.50,-0.000
566.00,-0.000
566.50,-0.000
567.00,-0.000
567.50,-0.000
568.00,-0.000
568.50,-0.000
569.00,-0.000
569.50,-0.000
570.00,-0.000
570.50,-0.000
571.00,-0.000
571.50,-0.000
572.00,-0.000
572.50,-0.000
573.00,-0.000
573.50,-0.000
574.00,-0.000
574.50,-0.000
575.00,-0.000
575.50,-0.000
576.00,-0.001
576.50,-0.001
577.00,-0.001
577.50,-0.001
578.00,-0.001
578.50,-0.001
579.00,-0.001
579.50,-0.001
580.00,-0.001
580.50,-0.001
581.00,-0.001
581.50,-0.001
582.00,-0.001
582.50,-0.001
583.00,-0.001
583.50,-0.001
584.00,-0.001
584.50,-0.001
585.00,-0.001
585.50,-0.001
586.00,-0.001
586.50,-0.001
587.00,-0.001
587.50,-0.001
588.00,-0.001
588.50,-0.001
589.00,-0.001
589.50,-0.001
590.00,-0.001
590.50,-0.001
591.00,-0.001
591.50,-0.001
592.00,-0.001
592.50,-0.001
593.00,-0.000
593.50,-0.000
594.00,-0.001
594.50,-0.001
595.00,-0.001
595.50,-0.001
596.00,-0.001
596.50,-0.001
597.00,-0.001
597.50,-0.001
598.00,-0.001
598.50,-0.001
599.00,-0.001
599.50,-0.001
600.00,-0.001
600.50,-0.001
601.00,-0.001
601.50,-0.001
602.00,-0.001
602.50,-0.001
603.00,-0.001
603.50,-0.001
604.00,-0.001
604.50,-0.001
605.00,-0.001
605.50,-0.001
606.00,-0.001
606.50,-0.001
607.00,-0.001
607.50,-0.001
608.00,-0.001
608.50,-0.001
609.00,-0.001
609.50,-0.001
610.00,-0.001
610.50,-0.001
611.00,-0.001
611.50,-0.001
612.00,-0.001
612.50,-0.001
613.00,-0.001
613.50,-0.001
614.00,-0.001
614.50,-0.001
615.00,-0.001
615.50,-0.001
616.00,-0.001
616.50,-0.001
617.00,-0.001
617.50,-0.001
618.00,-0.001
618.50,-0.001
619.00,-0.001
619.50,-0.001
620.00,-0.001
620.50,-0.001
621.00,-0.001
621.50,-0.001
622.00,-0.001
622.50,-0.001
623.00,-0.001
623.50,-0.001
624.00,-0.001
624.50,-0.001
625.00,-0.001
625.50,-0.001
626.00,-0.001
626.50,-0.001
627.00,-0.001
627.50,-0.001
628.00,-0.001
628.50,-0.001
629.00,-0.001
629.50,-0.001
630.00,-0.001
630.50,-0.001
631.00,-0.001
631.50,-0.001
632.00,-0.001
632.50,-0.001
633.00,-0.001
633.50,-0.001
634.00,-0.001
634.50,-0.001
635.00,-0.001
635.50,-0.001
636.00,-0.001
636.50,-0.001
637.00,-0.001
637.50,-0.001
638.00,-0.001
638.50,-0.001
639.00,-0.001
639.50,-0.001
640.00,-0.001
640.50,-0.001
641.00,-0.001
641.50,-0.001
642.00,-0.001
642.50,-0.001
643.00,-0.001
643.50,-0.001
644.00,-0.001
644.50,-0.001
645.00,-0.001
645.50,-0.001
646.00,-0.001
646.50,-0.001
647.00,-0.001
647.50,-0.001
648.00,-0.001
648.50,-0.001
649.00,-0.001
649.50,-0.001
650.00,-0.001
650.50,-0.001
651.00,-0.001
651.50,-0.001
652.00,-0.001
652.50,-0.001
653.00,-0.001
653.50,-0.001
654.00,-0.001
654.50,-0.001
655.00,-0.001
655.50,-0.001
656.00,-0.001
656.50,-0.001
657.00,-0.001
657.50,-0.001
658.00,-0.001
658.50,-0.001
659.00,-0.001
659.50,-0.001
660.00,-0.001
660.50,-0.001
661.00,-0.001
661.50,-0.001
662.00,-0.001
662.50,-0.001
663.00,-0.001
663.50,-0.001
664.00,-0.001
664.50,-0.001
665.00,-0.001
665.50,-0.001
666.00,-0.001
666.50,-0.001
667.00,-0.001
667.50,-0.000
668.00,-0.001
668.50,-0.001
669.00,-0.001
669.50,-0.001
670.00,-0.001
670.50,-0.001
671.00,-0.001
671.50,-0.001
672.00,-0.001
672.50,-0.001
673.00,-0.001
673.50,-0.001
674.00,-0.001
674.50,-0.001
675.00,-0.001
675.50,-0.001
676.00,-0.001
676.50,-0.001
677.00,-0.001
677.50,-0.001
678.00,-0.001
678.50,-0.001
679.00,-0.001
679.50,-0.001
680.00,-0.001
680.50,-0.001
681.00,-0.001
681.50,-0.001
682.00,-0.001
682.50,-0.001
683.00,-0.001
683.50,-0.001
684.00,-0.001
684.50,-0.001
685.00,-0.001
685.50,-0.001
686.00,-0.001
686.50,-0.001
687.00,-0.001
687.50,-0.001
688.00,-0.001
688.50,-0.001
689.00,-0.001
689.50,-0.001
690.00,-0.001
690.50,-0.001
691.00,-0.001
691.50,-0.001
692.00,-0.001
692.50,-0.001
693.00,-0.001
693.50,-0.001
694.00,-0.001
694.50,-0.001
695.00,-0.001
695.50,-0.001
696.00,-0.001
696.50,-0.001
697.00,-0.001
697.50,-0.001
698.00,-0.001
698.50,-0.001
699.00,-0.001
699.50,-0.001
700.00,-0.001
