"240C 150s2 - RawData"
"Wavelength nm.","Abs."
300.00,0.380
300.50,0.378
301.00,0.377
301.50,0.375
302.00,0.372
302.50,0.370
303.00,0.368
303.50,0.366
304.00,0.363
304.50,0.361
305.00,0.359
305.50,0.356
306.00,0.354
306.50,0.352
307.00,0.349
307.50,0.347
308.00,0.345
308.50,0.342
309.00,0.340
309.50,0.338
310.00,0.335
310.50,0.333
311.00,0.331
311.50,0.329
312.00,0.326
312.50,0.324
313.00,0.321
313.50,0.319
314.00,0.316
314.50,0.314
315.00,0.312
315.50,0.309
316.00,0.307
316.50,0.304
317.00,0.300
317.50,0.297
318.00,0.294
318.50,0.291
319.00,0.288
319.50,0.286
320.00,0.283
320.50,0.280
321.00,0.278
321.50,0.274
322.00,0.271
322.50,0.267
323.00,0.264
323.50,0.260
324.00,0.257
324.50,0.254
325.00,0.251
325.50,0.248
326.00,0.246
326.50,0.243
327.00,0.240
327.50,0.238
328.00,0.235
328.50,0.233
329.00,0.230
329.50,0.228
330.00,0.226
330.50,0.223
331.00,0.221
331.50,0.219
332.00,0.216
332.50,0.214
333.00,0.211
333.50,0.209
334.00,0.206
334.50,0.205
335.00,0.202
335.50,0.200
336.00,0.198
336.50,0.196
337.00,0.194
337.50,0.192
338.00,0.190
338.50,0.188
339.00,0.185
339.50,0.184
340.00,0.182
340.50,0.180
341.00,0.178
341.50,0.176
342.00,0.175
342.50,0.173
343.00,0.171
343.50,0.169
344.00,0.168
344.50,0.166
345.00,0.164
345.50,0.163
346.00,0.161
346.50,0.159
347.00,0.158
347.50,0.156
348.00,0.154
348.50,0.153
349.00,0.151
349.50,0.149
350.00,0.148
350.50,0.147
351.00,0.145
351.50,0.144
352.00,0.143
352.50,0.142
353.00,0.141
353.50,0.140
354.00,0.138
354.50,0.137
355.00,0.136
355.50,0.135
356.00,0.134
356.50,0.133
357.00,0.131
357.50,0.130
358.00,0.129
358.50,0.128
359.00,0.127
359.50,0.126
360.00,0.125
360.50,0.124
361.00,0.124
361.50,0.122
362.00,0.121
362.50,0.120
363.00,0.120
363.50,0.119
364.00,0.118
364.50,0.117
365.00,0.116
365.50,0.115
366.00,0.114
366.50,0.113
367.00,0.113
367.50,0.112
368.00,0.111
368.50,0.110
369.00,0.110
369.50,0.109
370.00,0.108
370.50,0.107
371.00,0.106
371.50,0.105
372.00,0.104
372.50,0.104
373.00,0.103
373.50,0.102
374.00,0.102
374.50,0.101
375.00,0.100
375.50,0.100
376.00,0.099
376.50,0.099
377.00,0.098
377.50,0.097
378.00,0.097
378.50,0.096
379.00,0.095
379.50,0.095
380.00,0.094
380.50,0.093
381.00,0.093
381.50,0.092
382.00,0.092
382.50,0.091
383.00,0.091
383.50,0.090
384.00,0.089
384.50,0.088
385.00,0.088
385.50,0.087
386.00,0.087
386.50,0.086
387.00,0.085
387.50,0.085
388.00,0.084
388.50,0.084
389.00,0.083
389.50,0.083
390.00,0.082
390.50,0.081
391.00,0.081
391.50,0.080
392.00,0.080
392.50,0.079
393.00,0.078
393.50,0.078
394.00,0.077
394.50,0.077
395.00,0.076
395.50,0.075
396.00,0.075
396.50,0.074
397.00,0.074
397.50,0.073
398.00,0.072
398.50,0.072
399.00,0.071
399.50,0.071
400.00,0.070
400.50,0.070
401.00,0.070
401.50,0.069
402.00,0.069
402.50,0.068
403.00,0.067
403.50,0.067
404.00,0.066
404.50,0.066
405.00,0.065
405.50,0.065
406.00,0.064
406.50,0.064
407.00,0.063
407.50,0.063
408.00,0.062
408.50,0.062
409.00,0.061
409.50,0.061
410.00,0.060
410.50,0.060
411.00,0.059
411.50,0.059
412.00,0.058
412.50,0.057
413.00,0.057
413.50,0.056
414.00,0.056
414.50,0.056
415.00,0.055
415.50,0.054
416.00,0.054
416.50,0.053
417.00,0.053
417.50,0.052
418.00,0.052
418.50,0.052
419.00,0.051
419.50,0.051
420.00,0.050
420.50,0.050
421.00,0.049
421.50,0.049
422.00,0.048
422.50,0.048
423.00,0.047
423.50,0.047
424.00,0.046
424.50,0.046
425.00,0.045
425.50,0.045
426.00,0.045
426.50,0.044
427.00,0.044
427.50,0.044
428.00,0.044
428.50,0.043
429.00,0.043
429.50,0.042
430.00,0.042
430.50,0.042
431.00,0.041
431.50,0.041
432.00,0.041
432.50,0.040
433.00,0.040
433.50,0.040
434.00,0.039
434.50,0.039
435.00,0.039
435.50,0.038
436.00,0.038
436.50,0.038
437.00,0.038
437.50,0.037
438.00,0.037
438.50,0.037
439.00,0.037
439.50,0.037
440.00,0.037
440.50,0.036
441.00,0.036
441.50,0.036
442.00,0.036
442.50,0.036
443.00,0.036
443.50,0.035
444.00,0.035
444.50,0.035
445.00,0.035
445.50,0.035
446.00,0.035
446.50,0.035
447.00,0.035
447.50,0.035
448.00,0.035
448.50,0.035
449.00,0.035
449.50,0.035
450.00,0.036
450.50,0.036
451.00,0.036
451.50,0.036
452.00,0.036
452.50,0.036
453.00,0.036
453.50,0.036
454.00,0.037
454.50,0.037
455.00,0.037
455.50,0.037
456.00,0.038
456.50,0.038
457.00,0.038
457.50,0.038
458.00,0.039
458.50,0.039
459.00,0.040
459.50,0.040
460.00,0.040
460.50,0.041
461.00,0.041
461.50,0.042
462.00,0.042
462.50,0.042
463.00,0.043
463.50,0.043
464.00,0.044
464.50,0.044
465.00,0.045
465.50,0.045
466.00,0.045
466.50,0.046
467.00,0.047
467.50,0.047
468.00,0.048
468.50,0.048
469.00,0.049
469.50,0.049
470.00,0.050
470.50,0.050
471.00,0.051
471.50,0.051
472.00,0.052
472.50,0.052
473.00,0.053
473.50,0.053
474.00,0.054
474.50,0.054
475.00,0.055
475.50,0.055
476.00,0.056
476.50,0.056
477.00,0.057
477.50,0.057
478.00,0.057
478.50,0.058
479.00,0.058
479.50,0.059
480.00,0.059
480.50,0.059
481.00,0.060
481.50,0.060
482.00,0.061
482.50,0.061
483.00,0.061
483.50,0.061
484.00,0.062
484.50,0.062
485.00,0.062
485.50,0.062
486.00,0.062
486.50,0.062
487.00,0.062
487.50,0.063
488.00,0.063
488.50,0.063
489.00,0.063
489.50,0.063
490.00,0.063
490.50,0.063
491.00,0.063
491.50,0.063
492.00,0.062
492.50,0.062
493.00,0.062
493.50,0.062
494.00,0.062
494.50,0.061
495.00,0.061
495.50,0.061
496.00,0.061
496.50,0.060
497.00,0.060
497.50,0.059
498.00,0.059
498.50,0.058
499.00,0.058
499.50,0.057
500.00,0.057
500.50,0.056
501.00,0.056
501.50,0.055
502.00,0.054
502.50,0.054
503.00,0.053
503.50,0.052
504.00,0.051
504.50,0.051
505.00,0.050
505.50,0.049
506.00,0.048
506.50,0.047
507.00,0.047
507.50,0.046
508.00,0.045
508.50,0.044
509.00,0.043
509.50,0.043
510.00,0.042
510.50,0.041
511.00,0.040
511.50,0.039
512.00,0.038
512.50,0.037
513.00,0.036
513.50,0.035
514.00,0.034
514.50,0.034
515.00,0.033
515.50,0.032
516.00,0.031
516.50,0.030
517.00,0.029
517.50,0.029
518.00,0.028
518.50,0.027
519.00,0.026
519.50,0.025
520.00,0.024
520.50,0.024
521.00,0.023
521.50,0.022
522.00,0.021
522.50,0.020
523.00,0.020
523.50,0.019
524.00,0.018
524.50,0.018
525.00,0.017
525.50,0.016
526.00,0.016
526.50,0.015
527.00,0.014
527.50,0.013
528.00,0.013
528.50,0.012
529.00,0.012
529.50,0.011
530.00,0.011
530.50,0.010
531.00,0.010
531.50,0.009
532.00,0.009
532.50,0.008
533.00,0.008
533.50,0.007
534.00,0.007
534.50,0.007
535.00,0.006
535.50,0.006
536.00,0.005
536.50,0.005
537.00,0.005
537.50,0.005
538.00,0.004
538.50,0.004
539.00,0.004
539.50,0.004
540.00,0.003
540.50,0.003
541.00,0.003
541.50,0.003
542.00,0.003
542.50,0.002
543.00,0.002
543.50,0.002
544.00,0.002
544.50,0.002
545.00,0.002
545.50,0.001
546.00,0.001
546.50,0.001
547.00,0.001
547.50,0.001
548.00,0.001
548.50,0.001
549.00,0.001
549.50,0.000
550.00,0.000
550.50,0.000
551.00,0.000
551.50,0.000
552.00,0.000
552.50,0.000
553.00,0.000
553.50,0.000
554.00,-0.000
554.50,-0.000
555.00,-0.000
555.50,-0.000
556.00,-0.000
556.50,-0.000
557.00,-0.000
557.50,-0.000
558.00,-0.000
558.50,-0.000
559.00,-0.000
559.50,-0.000
560.00,-0.000
560.50,-0.001
561.00,-0.001
561.50,-0.000
562.00,-0.001
562.50,-0.001
563.00,-0.001
563.50,-0.001
564.00,-0.001
564.50,-0.001
565.00,-0.001
565.50,-0.001
566.00,-0.001
566.50,-0.001
567.00,-0.001
567.50,-0.001
568.00,-0.001
568.50,-0.001
569.00,-0.001
569.50,-0.001
570.00,-0.001
570.50,-0.001
571.00,-0.001
571.50,-0.001
572.00,-0.001
572.50,-0.001
573.00,-0.001
573.50,-0.001
574.00,-0.001
574.50,-0.001
575.00,-0.001
575.50,-0.001
576.00,-0.001
576.50,-0.001
577.00,-0.001
577.50,-0.001
578.00,-0.001
578.50,-0.001
579.00,-0.001
579.50,-0.001
580.00,-0.001
580.50,-0.001
581.00,-0.001
581.50,-0.001
582.00,-0.001
582.50,-0.001
583.00,-0.001
583.50,-0.001
584.00,-0.001
584.50,-0.001
585.00,-0.001
585.50,-0.001
586.00,-0.001
586.50,-0.001
587.00,-0.001
587.50,-0.001
588.00,-0.001
588.50,-0.001
589.00,-0.001
589.50,-0.001
590.00,-0.001
590.50,-0.001
591.00,-0.001
591.50,-0.001
592.00,-0.001
592.50,-0.001
593.00,-0.001
593.50,-0.001
594.00,-0.001
594.50,-0.001
595.00,-0.001
595.50,-0.001
596.00,-0.001
596.50,-0.001
597.00,-0.001
597.50,-0.001
598.00,-0.001
598.50,-0.001
599.00,-0.001
599.50,-0.001
600.00,-0.001
600.50,-0.001
601.00,-0.001
601.50,-0.001
602.00,-0.001
602.50,-0.001
603.00,-0.001
603.50,-0.001
604.00,-0.001
604.50,-0.001
605.00,-0.001
605.50,-0.001
606.00,-0.001
606.50,-0.001
607.00,-0.001
607.50,-0.001
608.00,-0.001
608.50,-0.001
609.00,-0.001
609.50,-0.001
610.00,-0.001
610.50,-0.001
611.00,-0.001
611.50,-0.001
612.00,-0.001
612.50,-0.001
613.00,-0.001
613.50,-0.001
614.00,-0.001
614.50,-0.001
615.00,-0.001
615.50,-0.001
616.00,-0.001
616.50,-0.001
617.00,-0.001
617.50,-0.001
618.00,-0.001
618.50,-0.001
619.00,-0.001
619.50,-0.001
620.00,-0.001
620.50,-0.001
621.00,-0.001
621.50,-0.001
622.00,-0.001
622.50,-0.001
623.00,-0.001
623.50,-0.001
624.00,-0.001
624.50,-0.001
625.00,-0.001
625.50,-0.001
626.00,-0.001
626.50,-0.001
627.00,-0.001
627.50,-0.001
628.00,-0.001
628.50,-0.001
629.00,-0.001
629.50,-0.001
630.00,-0.001
630.50,-0.001
631.00,-0.001
631.50,-0.001
632.00,-0.001
632.50,-0.001
633.00,-0.001
633.50,-0.001
634.00,-0.001
634.50,-0.001
635.00,-0.001
635.50,-0.001
636.00,-0.001
636.50,-0.001
637.00,-0.001
637.50,-0.001
638.00,-0.001
638.50,-0.001
639.00,-0.001
639.50,-0.001
640.00,-0.001
640.50,-0.001
641.00,-0.001
641.50,-0.001
642.00,-0.001
642.50,-0.001
643.00,-0.001
643.50,-0.001
644.00,-0.001
644.50,-0.001
645.00,-0.001
645.50,-0.001
646.00,-0.001
646.50,-0.001
647.00,-0.001
647.50,-0.001
648.00,-0.001
648.50,-0.001
649.00,-0.001
649.50,-0.001
650.00,-0.001
650.50,-0.001
651.00,-0.001
651.50,-0.001
652.00,-0.001
652.50,-0.001
653.00,-0.001
653.50,-0.001
654.00,-0.001
654.50,-0.001
655.00,-0.001
655.50,-0.001
656.00,-0.001
656.50,-0.001
657.00,-0.001
657.50,-0.001
658.00,-0.001
658.50,-0.001
659.00,-0.001
659.50,-0.001
660.00,-0.001
660.50,-0.001
661.00,-0.001
661.50,-0.001
662.00,-0.001
662.50,-0.001
663.00,-0.001
663.50,-0.001
664.00,-0.001
664.50,-0.001
665.00,-0.001
665.50,-0.001
666.00,-0.001
666.50,-0.001
667.00,-0.001
667.50,-0.001
668.00,-0.001
668.50,-0.001
669.00,-0.001
669.50,-0.001
670.00,-0.001
670.50,-0.001
671.00,-0.001
671.50,-0.001
672.00,-0.001
672.50,-0.001
673.00,-0.001
673.50,-0.001
674.00,-0.001
674.50,-0.001
675.00,-0.001
675.50,-0.001
676.00,-0.001
676.50,-0.001
677.00,-0.001
677.50,-0.001
678.00,-0.001
678.50,-0.001
679.00,-0.001
679.50,-0.001
680.00,-0.001
680.50,-0.001
681.00,-0.001
681.50,-0.001
682.00,-0.001
682.50,-0.001
683.00,-0.001
683.50,-0.001
684.00,-0.001
684.50,-0.001
685.00,-0.001
685.50,-0.001
686.00,-0.001
686.50,-0.001
687.00,-0.001
687.50,-0.001
688.00,-0.001
688.50,-0.001
689.00,-0.001
689.50,-0.001
690.00,-0.001
690.50,-0.001
691.00,-0.001
691.50,-0.001
692.00,-0.001
692.50,-0.001
693.00,-0.001
693.50,-0.001
694.00,-0.001
694.50,-0.001
695.00,-0.001
695.50,-0.001
696.00,-0.001
696.50,-0.001
697.00,-0.001
697.50,-0.001
698.00,-0.001
698.50,-0.001
699.00,-0.001
699.50,-0.001
700.00,-0.001
