"240C 30s - RawData"
"Wavelength nm.","Abs."
300.00,0.359
300.50,0.358
301.00,0.357
301.50,0.355
302.00,0.353
302.50,0.350
303.00,0.348
303.50,0.346
304.00,0.344
304.50,0.341
305.00,0.339
305.50,0.337
306.00,0.334
306.50,0.332
307.00,0.330
307.50,0.328
308.00,0.326
308.50,0.324
309.00,0.322
309.50,0.319
310.00,0.317
310.50,0.315
311.00,0.313
311.50,0.311
312.00,0.309
312.50,0.307
313.00,0.304
313.50,0.302
314.00,0.300
314.50,0.298
315.00,0.296
315.50,0.294
316.00,0.292
316.50,0.289
317.00,0.286
317.50,0.283
318.00,0.280
318.50,0.277
319.00,0.274
319.50,0.271
320.00,0.269
320.50,0.266
321.00,0.263
321.50,0.261
322.00,0.258
322.50,0.255
323.00,0.252
323.50,0.250
324.00,0.247
324.50,0.244
325.00,0.242
325.50,0.240
326.00,0.237
326.50,0.234
327.00,0.232
327.50,0.229
328.00,0.227
328.50,0.225
329.00,0.222
329.50,0.220
330.00,0.218
330.50,0.215
331.00,0.213
331.50,0.212
332.00,0.210
332.50,0.208
333.00,0.206
333.50,0.204
334.00,0.201
334.50,0.199
335.00,0.197
335.50,0.195
336.00,0.193
336.50,0.191
337.00,0.189
337.50,0.187
338.00,0.186
338.50,0.184
339.00,0.182
339.50,0.180
340.00,0.178
340.50,0.176
341.00,0.174
341.50,0.173
342.00,0.171
342.50,0.169
343.00,0.167
343.50,0.165
344.00,0.164
344.50,0.163
345.00,0.161
345.50,0.160
346.00,0.159
346.50,0.157
347.00,0.155
347.50,0.154
348.00,0.152
348.50,0.151
349.00,0.149
349.50,0.148
350.00,0.146
350.50,0.145
351.00,0.144
351.50,0.143
352.00,0.142
352.50,0.140
353.00,0.139
353.50,0.138
354.00,0.137
354.50,0.136
355.00,0.135
355.50,0.134
356.00,0.133
356.50,0.132
357.00,0.130
357.50,0.129
358.00,0.128
358.50,0.127
359.00,0.126
359.50,0.125
360.00,0.124
360.50,0.124
361.00,0.123
361.50,0.122
362.00,0.121
362.50,0.120
363.00,0.119
363.50,0.118
364.00,0.117
364.50,0.116
365.00,0.115
365.50,0.114
366.00,0.113
366.50,0.112
367.00,0.112
367.50,0.111
368.00,0.110
368.50,0.109
369.00,0.109
369.50,0.108
370.00,0.107
370.50,0.106
371.00,0.106
371.50,0.105
372.00,0.104
372.50,0.103
373.00,0.102
373.50,0.101
374.00,0.101
374.50,0.100
375.00,0.099
375.50,0.099
376.00,0.098
376.50,0.097
377.00,0.097
377.50,0.096
378.00,0.096
378.50,0.095
379.00,0.095
379.50,0.094
380.00,0.093
380.50,0.093
381.00,0.092
381.50,0.091
382.00,0.091
382.50,0.090
383.00,0.090
383.50,0.089
384.00,0.088
384.50,0.088
385.00,0.087
385.50,0.086
386.00,0.086
386.50,0.086
387.00,0.085
387.50,0.085
388.00,0.084
388.50,0.083
389.00,0.083
389.50,0.082
390.00,0.081
390.50,0.081
391.00,0.080
391.50,0.080
392.00,0.079
392.50,0.079
393.00,0.078
393.50,0.078
394.00,0.077
394.50,0.077
395.00,0.076
395.50,0.076
396.00,0.075
396.50,0.074
397.00,0.074
397.50,0.073
398.00,0.073
398.50,0.072
399.00,0.072
399.50,0.071
400.00,0.071
400.50,0.070
401.00,0.070
401.50,0.070
402.00,0.069
402.50,0.069
403.00,0.068
403.50,0.068
404.00,0.067
404.50,0.067
405.00,0.066
405.50,0.066
406.00,0.065
406.50,0.065
407.00,0.064
407.50,0.064
408.00,0.063
408.50,0.063
409.00,0.062
409.50,0.062
410.00,0.061
410.50,0.061
411.00,0.060
411.50,0.060
412.00,0.059
412.50,0.058
413.00,0.058
413.50,0.058
414.00,0.057
414.50,0.057
415.00,0.056
415.50,0.056
416.00,0.055
416.50,0.054
417.00,0.054
417.50,0.054
418.00,0.053
418.50,0.053
419.00,0.053
419.50,0.052
420.00,0.052
420.50,0.051
421.00,0.051
421.50,0.050
422.00,0.050
422.50,0.049
423.00,0.049
423.50,0.048
424.00,0.048
424.50,0.048
425.00,0.047
425.50,0.047
426.00,0.047
426.50,0.046
427.00,0.046
427.50,0.046
428.00,0.045
428.50,0.045
429.00,0.045
429.50,0.044
430.00,0.044
430.50,0.043
431.00,0.043
431.50,0.043
432.00,0.042
432.50,0.042
433.00,0.042
433.50,0.042
434.00,0.041
434.50,0.041
435.00,0.041
435.50,0.041
436.00,0.040
436.50,0.040
437.00,0.040
437.50,0.040
438.00,0.040
438.50,0.039
439.00,0.039
439.50,0.039
440.00,0.039
440.50,0.039
441.00,0.039
441.50,0.038
442.00,0.038
442.50,0.038
443.00,0.038
443.50,0.038
444.00,0.038
444.50,0.038
445.00,0.038
445.50,0.038
446.00,0.038
446.50,0.038
447.00,0.039
447.50,0.039
448.00,0.039
448.50,0.039
449.00,0.039
449.50,0.039
450.00,0.039
450.50,0.039
451.00,0.039
451.50,0.040
452.00,0.040
452.50,0.040
453.00,0.040
453.50,0.040
454.00,0.041
454.50,0.041
455.00,0.041
455.50,0.041
456.00,0.042
456.50,0.042
457.00,0.042
457.50,0.042
458.00,0.043
458.50,0.043
459.00,0.044
459.50,0.044
460.00,0.044
460.50,0.045
461.00,0.045
461.50,0.045
462.00,0.046
462.50,0.046
463.00,0.047
463.50,0.047
464.00,0.047
464.50,0.048
465.00,0.048
465.50,0.049
466.00,0.049
466.50,0.049
467.00,0.050
467.50,0.050
468.00,0.051
468.50,0.051
469.00,0.052
469.50,0.052
470.00,0.053
470.50,0.053
471.00,0.053
471.50,0.054
472.00,0.054
472.50,0.054
473.00,0.055
473.50,0.055
474.00,0.055
474.50,0.056
475.00,0.056
475.50,0.057
476.00,0.057
476.50,0.057
477.00,0.058
477.50,0.058
478.00,0.058
478.50,0.058
479.00,0.059
479.50,0.059
480.00,0.059
480.50,0.059
481.00,0.059
481.50,0.060
482.00,0.060
482.50,0.060
483.00,0.060
483.50,0.060
484.00,0.061
484.50,0.061
485.00,0.061
485.50,0.061
486.00,0.061
486.50,0.060
487.00,0.061
487.50,0.061
488.00,0.061
488.50,0.061
489.00,0.061
489.50,0.061
490.00,0.060
490.50,0.060
491.00,0.060
491.50,0.060
492.00,0.059
492.50,0.059
493.00,0.059
493.50,0.058
494.00,0.058
494.50,0.058
495.00,0.057
495.50,0.057
496.00,0.057
496.50,0.056
497.00,0.056
497.50,0.055
498.00,0.055
498.50,0.054
499.00,0.054
499.50,0.053
500.00,0.053
500.50,0.052
501.00,0.051
501.50,0.051
502.00,0.050
502.50,0.049
503.00,0.049
503.50,0.048
504.00,0.047
504.50,0.047
505.00,0.046
505.50,0.045
506.00,0.044
506.50,0.044
507.00,0.043
507.50,0.042
508.00,0.041
508.50,0.041
509.00,0.040
509.50,0.039
510.00,0.039
510.50,0.038
511.00,0.037
511.50,0.036
512.00,0.035
512.50,0.035
513.00,0.034
513.50,0.033
514.00,0.032
514.50,0.032
515.00,0.031
515.50,0.030
516.00,0.030
516.50,0.029
517.00,0.028
517.50,0.028
518.00,0.027
518.50,0.026
519.00,0.025
519.50,0.025
520.00,0.024
520.50,0.024
521.00,0.023
521.50,0.022
522.00,0.022
522.50,0.021
523.00,0.020
523.50,0.020
524.00,0.019
524.50,0.018
525.00,0.018
525.50,0.017
526.00,0.017
526.50,0.017
527.00,0.016
527.50,0.016
528.00,0.015
528.50,0.015
529.00,0.014
529.50,0.014
530.00,0.013
530.50,0.013
531.00,0.012
531.50,0.012
532.00,0.011
532.50,0.011
533.00,0.011
533.50,0.010
534.00,0.010
534.50,0.010
535.00,0.010
535.50,0.009
536.00,0.009
536.50,0.009
537.00,0.008
537.50,0.008
538.00,0.008
538.50,0.008
539.00,0.008
539.50,0.007
540.00,0.007
540.50,0.007
541.00,0.007
541.50,0.007
542.00,0.007
542.50,0.006
543.00,0.006
543.50,0.006
544.00,0.006
544.50,0.006
545.00,0.006
545.50,0.006
546.00,0.005
546.50,0.005
547.00,0.005
547.50,0.005
548.00,0.005
548.50,0.005
549.00,0.005
549.50,0.005
550.00,0.005
550.50,0.005
551.00,0.005
551.50,0.005
552.00,0.004
552.50,0.004
553.00,0.004
553.50,0.004
554.00,0.004
554.50,0.004
555.00,0.004
555.50,0.004
556.00,0.004
556.50,0.004
557.00,0.004
557.50,0.004
558.00,0.004
558.50,0.004
559.00,0.004
559.50,0.004
560.00,0.004
560.50,0.004
561.00,0.004
561.50,0.004
562.00,0.004
562.50,0.004
563.00,0.004
563.50,0.003
564.00,0.003
564.50,0.003
565.00,0.003
565.50,0.003
566.00,0.003
566.50,0.003
567.00,0.003
567.50,0.003
568.00,0.003
568.50,0.003
569.00,0.003
569.50,0.003
570.00,0.003
570.50,0.003
571.00,0.003
571.50,0.003
572.00,0.003
572.50,0.003
573.00,0.003
573.50,0.003
574.00,0.003
574.50,0.003
575.00,0.003
575.50,0.003
576.00,0.003
576.50,0.003
577.00,0.003
577.50,0.003
578.00,0.003
578.50,0.003
579.00,0.003
579.50,0.003
580.00,0.003
580.50,0.003
581.00,0.003
581.50,0.003
582.00,0.003
582.50,0.003
583.00,0.003
583.50,0.003
584.00,0.003
584.50,0.003
585.00,0.003
585.50,0.003
586.00,0.003
586.50,0.003
587.00,0.003
587.50,0.003
588.00,0.003
588.50,0.003
589.00,0.003
589.50,0.003
590.00,0.003
590.50,0.003
591.00,0.003
591.50,0.003
592.00,0.003
592.50,0.003
593.00,0.003
593.50,0.003
594.00,0.003
594.50,0.003
595.00,0.003
595.50,0.003
596.00,0.003
596.50,0.003
597.00,0.003
597.50,0.003
598.00,0.003
598.50,0.003
599.00,0.003
599.50,0.003
600.00,0.003
600.50,0.003
601.00,0.003
601.50,0.003
602.00,0.003
602.50,0.003
603.00,0.003
603.50,0.003
604.00,0.003
604.50,0.003
605.00,0.003
605.50,0.003
606.00,0.003
606.50,0.003
607.00,0.003
607.50,0.003
608.00,0.003
608.50,0.003
609.00,0.003
609.50,0.003
610.00,0.003
610.50,0.003
611.00,0.003
611.50,0.003
612.00,0.003
612.50,0.003
613.00,0.003
613.50,0.003
614.00,0.003
614.50,0.003
615.00,0.003
615.50,0.003
616.00,0.003
616.50,0.003
617.00,0.003
617.50,0.003
618.00,0.003
618.50,0.003
619.00,0.003
619.50,0.003
620.00,0.003
620.50,0.003
621.00,0.003
621.50,0.003
622.00,0.003
622.50,0.003
623.00,0.003
623.50,0.003
624.00,0.003
624.50,0.003
625.00,0.003
625.50,0.003
626.00,0.003
626.50,0.003
627.00,0.003
627.50,0.003
628.00,0.003
628.50,0.003
629.00,0.003
629.50,0.003
630.00,0.003
630.50,0.003
631.00,0.003
631.50,0.003
632.00,0.003
632.50,0.003
633.00,0.002
633.50,0.003
634.00,0.003
634.50,0.003
635.00,0.003
635.50,0.003
636.00,0.003
636.50,0.003
637.00,0.003
637.50,0.003
638.00,0.003
638.50,0.003
639.00,0.003
639.50,0.003
640.00,0.003
640.50,0.003
641.00,0.003
641.50,0.003
642.00,0.003
642.50,0.003
643.00,0.003
643.50,0.003
644.00,0.003
644.50,0.003
645.00,0.003
645.50,0.003
646.00,0.003
646.50,0.003
647.00,0.003
647.50,0.003
648.00,0.003
648.50,0.003
649.00,0.003
649.50,0.003
650.00,0.003
650.50,0.003
651.00,0.003
651.50,0.003
652.00,0.003
652.50,0.003
653.00,0.003
653.50,0.003
654.00,0.003
654.50,0.003
655.00,0.003
655.50,0.003
656.00,0.003
656.50,0.003
657.00,0.003
657.50,0.003
658.00,0.003
658.50,0.003
659.00,0.003
659.50,0.002
660.00,0.002
660.50,0.002
661.00,0.002
661.50,0.002
662.00,0.002
662.50,0.002
663.00,0.002
663.50,0.002
664.00,0.002
664.50,0.002
665.00,0.002
665.50,0.002
666.00,0.002
666.50,0.002
667.00,0.002
667.50,0.002
668.00,0.003
668.50,0.003
669.00,0.003
669.50,0.003
670.00,0.003
670.50,0.003
671.00,0.003
671.50,0.002
672.00,0.002
672.50,0.002
673.00,0.003
673.50,0.003
674.00,0.003
674.50,0.002
675.00,0.003
675.50,0.002
676.00,0.003
676.50,0.003
677.00,0.003
677.50,0.003
678.00,0.003
678.50,0.003
679.00,0.003
679.50,0.003
680.00,0.003
680.50,0.003
681.00,0.002
681.50,0.003
682.00,0.003
682.50,0.003
683.00,0.003
683.50,0.003
684.00,0.002
684.50,0.003
685.00,0.002
685.50,0.003
686.00,0.003
686.50,0.003
687.00,0.002
687.50,0.003
688.00,0.003
688.50,0.003
689.00,0.003
689.50,0.003
690.00,0.003
690.50,0.003
691.00,0.003
691.50,0.003
692.00,0.003
692.50,0.003
693.00,0.003
693.50,0.003
694.00,0.003
694.50,0.002
695.00,0.002
695.50,0.002
696.00,0.002
696.50,0.002
697.00,0.002
697.50,0.002
698.00,0.002
698.50,0.003
699.00,0.003
699.50,0.003
700.00,0.003
