"260C 1800s - RawData"
"Wavelength nm.","Abs."
300.00,0.417
300.50,0.415
301.00,0.412
301.50,0.410
302.00,0.407
302.50,0.404
303.00,0.401
303.50,0.398
304.00,0.395
304.50,0.392
305.00,0.389
305.50,0.387
306.00,0.383
306.50,0.381
307.00,0.378
307.50,0.375
308.00,0.372
308.50,0.369
309.00,0.366
309.50,0.363
310.00,0.360
310.50,0.358
311.00,0.355
311.50,0.353
312.00,0.351
312.50,0.348
313.00,0.345
313.50,0.343
314.00,0.340
314.50,0.337
315.00,0.335
315.50,0.332
316.00,0.329
316.50,0.326
317.00,0.323
317.50,0.320
318.00,0.316
318.50,0.314
319.00,0.311
319.50,0.308
320.00,0.305
320.50,0.303
321.00,0.300
321.50,0.297
322.00,0.295
322.50,0.292
323.00,0.290
323.50,0.287
324.00,0.285
324.50,0.282
325.00,0.280
325.50,0.277
326.00,0.274
326.50,0.272
327.00,0.269
327.50,0.266
328.00,0.264
328.50,0.262
329.00,0.259
329.50,0.257
330.00,0.254
330.50,0.251
331.00,0.249
331.50,0.246
332.00,0.244
332.50,0.241
333.00,0.239
333.50,0.237
334.00,0.235
334.50,0.232
335.00,0.230
335.50,0.228
336.00,0.225
336.50,0.223
337.00,0.221
337.50,0.219
338.00,0.217
338.50,0.215
339.00,0.213
339.50,0.210
340.00,0.208
340.50,0.206
341.00,0.204
341.50,0.202
342.00,0.200
342.50,0.198
343.00,0.196
343.50,0.194
344.00,0.192
344.50,0.190
345.00,0.188
345.50,0.186
346.00,0.185
346.50,0.182
347.00,0.181
347.50,0.179
348.00,0.177
348.50,0.175
349.00,0.174
349.50,0.172
350.00,0.170
350.50,0.169
351.00,0.167
351.50,0.166
352.00,0.165
352.50,0.163
353.00,0.162
353.50,0.160
354.00,0.159
354.50,0.157
355.00,0.156
355.50,0.154
356.00,0.153
356.50,0.151
357.00,0.150
357.50,0.149
358.00,0.148
358.50,0.147
359.00,0.145
359.50,0.144
360.00,0.143
360.50,0.141
361.00,0.140
361.50,0.139
362.00,0.138
362.50,0.136
363.00,0.135
363.50,0.134
364.00,0.133
364.50,0.131
365.00,0.130
365.50,0.129
366.00,0.128
366.50,0.127
367.00,0.126
367.50,0.125
368.00,0.124
368.50,0.123
369.00,0.122
369.50,0.120
370.00,0.120
370.50,0.119
371.00,0.118
371.50,0.117
372.00,0.116
372.50,0.115
373.00,0.114
373.50,0.113
374.00,0.112
374.50,0.111
375.00,0.111
375.50,0.110
376.00,0.109
376.50,0.108
377.00,0.107
377.50,0.107
378.00,0.106
378.50,0.105
379.00,0.104
379.50,0.103
380.00,0.102
380.50,0.102
381.00,0.101
381.50,0.100
382.00,0.099
382.50,0.098
383.00,0.098
383.50,0.097
384.00,0.096
384.50,0.095
385.00,0.095
385.50,0.094
386.00,0.093
386.50,0.092
387.00,0.092
387.50,0.091
388.00,0.090
388.50,0.090
389.00,0.089
389.50,0.088
390.00,0.087
390.50,0.087
391.00,0.086
391.50,0.085
392.00,0.085
392.50,0.084
393.00,0.083
393.50,0.082
394.00,0.082
394.50,0.081
395.00,0.081
395.50,0.080
396.00,0.079
396.50,0.079
397.00,0.078
397.50,0.078
398.00,0.077
398.50,0.076
399.00,0.076
399.50,0.075
400.00,0.075
400.50,0.074
401.00,0.074
401.50,0.073
402.00,0.073
402.50,0.072
403.00,0.072
403.50,0.071
404.00,0.070
404.50,0.070
405.00,0.069
405.50,0.069
406.00,0.068
406.50,0.068
407.00,0.067
407.50,0.067
408.00,0.066
408.50,0.066
409.00,0.065
409.50,0.065
410.00,0.064
410.50,0.064
411.00,0.063
411.50,0.063
412.00,0.062
412.50,0.061
413.00,0.061
413.50,0.060
414.00,0.060
414.50,0.059
415.00,0.059
415.50,0.058
416.00,0.058
416.50,0.057
417.00,0.057
417.50,0.057
418.00,0.056
418.50,0.056
419.00,0.055
419.50,0.055
420.00,0.054
420.50,0.054
421.00,0.054
421.50,0.053
422.00,0.053
422.50,0.053
423.00,0.052
423.50,0.052
424.00,0.051
424.50,0.051
425.00,0.050
425.50,0.050
426.00,0.050
426.50,0.049
427.00,0.049
427.50,0.049
428.00,0.049
428.50,0.048
429.00,0.048
429.50,0.048
430.00,0.047
430.50,0.047
431.00,0.046
431.50,0.046
432.00,0.046
432.50,0.045
433.00,0.045
433.50,0.045
434.00,0.044
434.50,0.044
435.00,0.044
435.50,0.044
436.00,0.043
436.50,0.043
437.00,0.043
437.50,0.042
438.00,0.042
438.50,0.042
439.00,0.042
439.50,0.042
440.00,0.041
440.50,0.041
441.00,0.041
441.50,0.041
442.00,0.040
442.50,0.040
443.00,0.040
443.50,0.040
444.00,0.039
444.50,0.039
445.00,0.039
445.50,0.039
446.00,0.039
446.50,0.039
447.00,0.039
447.50,0.038
448.00,0.038
448.50,0.038
449.00,0.038
449.50,0.038
450.00,0.038
450.50,0.038
451.00,0.038
451.50,0.038
452.00,0.038
452.50,0.038
453.00,0.037
453.50,0.038
454.00,0.037
454.50,0.037
455.00,0.037
455.50,0.037
456.00,0.037
456.50,0.037
457.00,0.037
457.50,0.037
458.00,0.037
458.50,0.037
459.00,0.037
459.50,0.037
460.00,0.037
460.50,0.037
461.00,0.037
461.50,0.038
462.00,0.038
462.50,0.038
463.00,0.038
463.50,0.038
464.00,0.038
464.50,0.038
465.00,0.038
465.50,0.038
466.00,0.038
466.50,0.038
467.00,0.038
467.50,0.038
468.00,0.038
468.50,0.038
469.00,0.038
469.50,0.039
470.00,0.039
470.50,0.039
471.00,0.039
471.50,0.039
472.00,0.039
472.50,0.039
473.00,0.039
473.50,0.040
474.00,0.040
474.50,0.040
475.00,0.040
475.50,0.040
476.00,0.040
476.50,0.040
477.00,0.041
477.50,0.041
478.00,0.041
478.50,0.041
479.00,0.041
479.50,0.041
480.00,0.041
480.50,0.041
481.00,0.041
481.50,0.041
482.00,0.042
482.50,0.042
483.00,0.042
483.50,0.042
484.00,0.043
484.50,0.043
485.00,0.043
485.50,0.043
486.00,0.043
486.50,0.043
487.00,0.043
487.50,0.043
488.00,0.043
488.50,0.043
489.00,0.043
489.50,0.043
490.00,0.043
490.50,0.043
491.00,0.044
491.50,0.044
492.00,0.044
492.50,0.044
493.00,0.044
493.50,0.044
494.00,0.044
494.50,0.044
495.00,0.044
495.50,0.044
496.00,0.044
496.50,0.044
497.00,0.044
497.50,0.044
498.00,0.043
498.50,0.043
499.00,0.043
499.50,0.043
500.00,0.043
500.50,0.043
501.00,0.043
501.50,0.043
502.00,0.043
502.50,0.043
503.00,0.042
503.50,0.042
504.00,0.042
504.50,0.042
505.00,0.042
505.50,0.041
506.00,0.041
506.50,0.041
507.00,0.040
507.50,0.040
508.00,0.040
508.50,0.040
509.00,0.040
509.50,0.039
510.00,0.039
510.50,0.039
511.00,0.038
511.50,0.038
512.00,0.038
512.50,0.037
513.00,0.037
513.50,0.037
514.00,0.036
514.50,0.036
515.00,0.036
515.50,0.035
516.00,0.035
516.50,0.035
517.00,0.034
517.50,0.034
518.00,0.033
518.50,0.033
519.00,0.032
519.50,0.032
520.00,0.031
520.50,0.031
521.00,0.031
521.50,0.030
522.00,0.030
522.50,0.029
523.00,0.029
523.50,0.028
524.00,0.028
524.50,0.027
525.00,0.027
525.50,0.026
526.00,0.026
526.50,0.025
527.00,0.025
527.50,0.024
528.00,0.024
528.50,0.023
529.00,0.023
529.50,0.022
530.00,0.022
530.50,0.021
531.00,0.021
531.50,0.020
532.00,0.020
532.50,0.019
533.00,0.019
533.50,0.018
534.00,0.018
534.50,0.017
535.00,0.017
535.50,0.017
536.00,0.016
536.50,0.016
537.00,0.015
537.50,0.015
538.00,0.014
538.50,0.014
539.00,0.013
539.50,0.013
540.00,0.013
540.50,0.012
541.00,0.012
541.50,0.012
542.00,0.011
542.50,0.011
543.00,0.010
543.50,0.010
544.00,0.010
544.50,0.009
545.00,0.009
545.50,0.009
546.00,0.008
546.50,0.008
547.00,0.008
547.50,0.007
548.00,0.007
548.50,0.007
549.00,0.006
549.50,0.006
550.00,0.006
550.50,0.006
551.00,0.006
551.50,0.005
552.00,0.005
552.50,0.005
553.00,0.005
553.50,0.005
554.00,0.004
554.50,0.004
555.00,0.004
555.50,0.004
556.00,0.004
556.50,0.003
557.00,0.003
557.50,0.003
558.00,0.003
558.50,0.003
559.00,0.003
559.50,0.003
560.00,0.003
560.50,0.002
561.00,0.002
561.50,0.002
562.00,0.002
562.50,0.002
563.00,0.002
563.50,0.002
564.00,0.002
564.50,0.002
565.00,0.001
565.50,0.001
566.00,0.001
566.50,0.001
567.00,0.001
567.50,0.001
568.00,0.001
568.50,0.001
569.00,0.001
569.50,0.001
570.00,0.001
570.50,0.001
571.00,0.001
571.50,0.001
572.00,0.001
572.50,0.001
573.00,0.001
573.50,0.001
574.00,0.001
574.50,0.001
575.00,0.001
575.50,0.000
576.00,0.000
576.50,0.000
577.00,0.000
577.50,0.000
578.00,0.000
578.50,0.000
579.00,0.000
579.50,0.000
580.00,0.000
580.50,0.000
581.00,0.000
581.50,-0.000
582.00,0.000
582.50,0.000
583.00,-0.000
583.50,-0.000
584.00,0.000
584.50,0.000
585.00,-0.000
585.50,0.000
586.00,0.000
586.50,0.000
587.00,0.000
587.50,-0.000
588.00,-0.000
588.50,-0.000
589.00,-0.000
589.50,-0.000
590.00,0.000
590.50,0.000
591.00,0.000
591.50,0.000
592.00,0.000
592.50,0.000
593.00,0.000
593.50,0.000
594.00,0.000
594.50,-0.000
595.00,-0.000
595.50,-0.000
596.00,-0.000
596.50,-0.000
597.00,-0.000
597.50,-0.000
598.00,-0.000
598.50,-0.000
599.00,-0.000
599.50,-0.000
600.00,-0.000
600.50,-0.000
601.00,-0.000
601.50,-0.000
602.00,-0.000
602.50,-0.000
603.00,-0.000
603.50,0.000
604.00,0.000
604.50,0.000
605.00,0.000
605.50,0.000
606.00,-0.000
606.50,-0.000
607.00,-0.000
607.50,-0.000
608.00,-0.000
608.50,-0.000
609.00,-0.000
609.50,-0.000
610.00,-0.000
610.50,-0.000
611.00,-0.000
611.50,-0.000
612.00,-0.000
612.50,-0.000
613.00,-0.000
613.50,-0.000
614.00,-0.000
614.50,-0.000
615.00,-0.000
615.50,-0.000
616.00,-0.000
616.50,-0.000
617.00,-0.000
617.50,-0.000
618.00,-0.000
618.50,-0.000
619.00,-0.000
619.50,-0.000
620.00,-0.000
620.50,-0.000
621.00,-0.000
621.50,-0.000
622.00,-0.000
622.50,-0.000
623.00,-0.000
623.50,-0.000
624.00,-0.000
624.50,-0.000
625.00,-0.000
625.50,-0.000
626.00,-0.000
626.50,-0.000
627.00,-0.000
627.50,-0.000
628.00,-0.000
628.50,-0.000
629.00,-0.000
629.50,-0.000
630.00,-0.000
630.50,0.000
631.00,-0.000
631.50,-0.000
632.00,-0.000
632.50,-0.000
633.00,-0.000
633.50,-0.000
634.00,-0.000
634.50,-0.000
635.00,-0.000
635.50,-0.000
636.00,-0.000
636.50,-0.000
637.00,-0.000
637.50,-0.000
638.00,-0.000
638.50,-0.000
639.00,0.000
639.50,-0.000
640.00,-0.000
640.50,-0.000
641.00,-0.000
641.50,-0.000
642.00,-0.000
642.50,-0.000
643.00,-0.000
643.50,-0.000
644.00,-0.000
644.50,-0.000
645.00,-0.000
645.50,-0.000
646.00,-0.000
646.50,-0.000
647.00,-0.000
647.50,-0.000
648.00,-0.000
648.50,-0.000
649.00,-0.000
649.50,-0.000
650.00,-0.000
650.50,-0.000
651.00,-0.000
651.50,-0.000
652.00,-0.000
652.50,-0.000
653.00,-0.000
653.50,-0.000
654.00,-0.000
654.50,-0.000
655.00,-0.000
655.50,-0.000
656.00,-0.000
656.50,-0.000
657.00,-0.000
657.50,-0.000
658.00,-0.000
658.50,-0.000
659.00,-0.000
659.50,-0.000
660.00,-0.000
660.50,-0.000
661.00,-0.000
661.50,-0.000
662.00,-0.000
662.50,-0.000
663.00,-0.000
663.50,-0.001
664.00,-0.001
664.50,-0.001
665.00,-0.001
665.50,-0.001
666.00,-0.000
666.50,-0.000
667.00,-0.000
667.50,-0.000
668.00,-0.000
668.50,-0.000
669.00,-0.000
669.50,-0.000
670.00,-0.000
670.50,-0.000
671.00,-0.000
671.50,-0.000
672.00,-0.000
672.50,-0.000
673.00,-0.000
673.50,-0.000
674.00,-0.000
674.50,-0.000
675.00,-0.000
675.50,-0.001
676.00,-0.000
676.50,-0.000
677.00,-0.000
677.50,-0.000
678.00,-0.000
678.50,-0.000
679.00,-0.000
679.50,-0.000
680.00,-0.000
680.50,-0.000
681.00,-0.000
681.50,-0.000
682.00,-0.000
682.50,-0.000
683.00,-0.000
683.50,-0.000
684.00,-0.000
684.50,-0.000
685.00,-0.000
685.50,-0.000
686.00,-0.000
686.50,-0.000
687.00,-0.000
687.50,-0.001
688.00,-0.001
688.50,-0.000
689.00,-0.000
689.50,-0.000
690.00,-0.000
690.50,-0.000
691.00,-0.000
691.50,-0.000
692.00,-0.000
692.50,-0.000
693.00,-0.000
693.50,-0.000
694.00,-0.000
694.50,-0.001
695.00,-0.001
695.50,-0.001
696.00,-0.001
696.50,-0.000
697.00,-0.000
697.50,-0.000
698.00,-0.000
698.50,-0.000
699.00,-0.000
699.50,-0.000
700.00,-0.000
