"260C 300s - RawData"
"Wavelength nm.","Abs."
300.00,0.349
300.50,0.348
301.00,0.346
301.50,0.344
302.00,0.342
302.50,0.340
303.00,0.339
303.50,0.336
304.00,0.334
304.50,0.332
305.00,0.330
305.50,0.328
306.00,0.326
306.50,0.324
307.00,0.322
307.50,0.320
308.00,0.318
308.50,0.316
309.00,0.313
309.50,0.311
310.00,0.309
310.50,0.307
311.00,0.305
311.50,0.303
312.00,0.301
312.50,0.299
313.00,0.297
313.50,0.295
314.00,0.293
314.50,0.291
315.00,0.290
315.50,0.287
316.00,0.284
316.50,0.281
317.00,0.278
317.50,0.275
318.00,0.272
318.50,0.270
319.00,0.267
319.50,0.265
320.00,0.262
320.50,0.259
321.00,0.256
321.50,0.253
322.00,0.251
322.50,0.248
323.00,0.245
323.50,0.242
324.00,0.240
324.50,0.237
325.00,0.235
325.50,0.232
326.00,0.230
326.50,0.227
327.00,0.224
327.50,0.222
328.00,0.220
328.50,0.217
329.00,0.215
329.50,0.213
330.00,0.211
330.50,0.208
331.00,0.206
331.50,0.204
332.00,0.202
332.50,0.200
333.00,0.198
333.50,0.196
334.00,0.193
334.50,0.191
335.00,0.189
335.50,0.187
336.00,0.185
336.50,0.183
337.00,0.181
337.50,0.179
338.00,0.177
338.50,0.175
339.00,0.173
339.50,0.171
340.00,0.169
340.50,0.167
341.00,0.166
341.50,0.164
342.00,0.162
342.50,0.161
343.00,0.159
343.50,0.157
344.00,0.156
344.50,0.154
345.00,0.153
345.50,0.151
346.00,0.150
346.50,0.148
347.00,0.147
347.50,0.145
348.00,0.144
348.50,0.142
349.00,0.141
349.50,0.139
350.00,0.138
350.50,0.137
351.00,0.136
351.50,0.134
352.00,0.133
352.50,0.132
353.00,0.131
353.50,0.130
354.00,0.129
354.50,0.128
355.00,0.126
355.50,0.125
356.00,0.124
356.50,0.123
357.00,0.122
357.50,0.121
358.00,0.120
358.50,0.119
359.00,0.118
359.50,0.118
360.00,0.117
360.50,0.116
361.00,0.115
361.50,0.114
362.00,0.113
362.50,0.112
363.00,0.111
363.50,0.110
364.00,0.109
364.50,0.109
365.00,0.108
365.50,0.107
366.00,0.106
366.50,0.106
367.00,0.105
367.50,0.104
368.00,0.103
368.50,0.103
369.00,0.102
369.50,0.101
370.00,0.101
370.50,0.100
371.00,0.100
371.50,0.098
372.00,0.098
372.50,0.097
373.00,0.097
373.50,0.096
374.00,0.095
374.50,0.095
375.00,0.094
375.50,0.094
376.00,0.093
376.50,0.092
377.00,0.092
377.50,0.091
378.00,0.091
378.50,0.090
379.00,0.090
379.50,0.089
380.00,0.089
380.50,0.088
381.00,0.088
381.50,0.087
382.00,0.086
382.50,0.086
383.00,0.085
383.50,0.085
384.00,0.084
384.50,0.084
385.00,0.083
385.50,0.082
386.00,0.082
386.50,0.081
387.00,0.081
387.50,0.081
388.00,0.080
388.50,0.080
389.00,0.079
389.50,0.078
390.00,0.078
390.50,0.077
391.00,0.077
391.50,0.076
392.00,0.076
392.50,0.075
393.00,0.075
393.50,0.074
394.00,0.074
394.50,0.073
395.00,0.073
395.50,0.072
396.00,0.072
396.50,0.071
397.00,0.071
397.50,0.070
398.00,0.070
398.50,0.069
399.00,0.069
399.50,0.068
400.00,0.068
400.50,0.068
401.00,0.067
401.50,0.067
402.00,0.067
402.50,0.066
403.00,0.066
403.50,0.065
404.00,0.065
404.50,0.065
405.00,0.067
405.50,0.067
406.00,0.068
406.50,0.068
407.00,0.068
407.50,0.067
408.00,0.066
408.50,0.066
409.00,0.065
409.50,0.064
410.00,0.063
410.50,0.061
411.00,0.061
411.50,0.060
412.00,0.059
412.50,0.059
413.00,0.058
413.50,0.058
414.00,0.057
414.50,0.057
415.00,0.057
415.50,0.057
416.00,0.057
416.50,0.056
417.00,0.056
417.50,0.056
418.00,0.055
418.50,0.054
419.00,0.054
419.50,0.053
420.00,0.053
420.50,0.052
421.00,0.052
421.50,0.051
422.00,0.051
422.50,0.050
423.00,0.050
423.50,0.049
424.00,0.049
424.50,0.048
425.00,0.048
425.50,0.048
426.00,0.047
426.50,0.047
427.00,0.047
427.50,0.047
428.00,0.046
428.50,0.046
429.00,0.046
429.50,0.046
430.00,0.045
430.50,0.045
431.00,0.044
431.50,0.044
432.00,0.044
432.50,0.043
433.00,0.043
433.50,0.042
434.00,0.042
434.50,0.042
435.00,0.042
435.50,0.041
436.00,0.041
436.50,0.041
437.00,0.040
437.50,0.040
438.00,0.040
438.50,0.039
439.00,0.039
439.50,0.039
440.00,0.038
440.50,0.038
441.00,0.038
441.50,0.038
442.00,0.038
442.50,0.037
443.00,0.037
443.50,0.037
444.00,0.037
444.50,0.037
445.00,0.037
445.50,0.037
446.00,0.036
446.50,0.036
447.00,0.036
447.50,0.036
448.00,0.036
448.50,0.036
449.00,0.035
449.50,0.035
450.00,0.035
450.50,0.035
451.00,0.035
451.50,0.035
452.00,0.035
452.50,0.035
453.00,0.035
453.50,0.035
454.00,0.035
454.50,0.035
455.00,0.035
455.50,0.036
456.00,0.036
456.50,0.036
457.00,0.036
457.50,0.036
458.00,0.036
458.50,0.036
459.00,0.036
459.50,0.036
460.00,0.037
460.50,0.037
461.00,0.037
461.50,0.037
462.00,0.038
462.50,0.038
463.00,0.038
463.50,0.038
464.00,0.039
464.50,0.039
465.00,0.039
465.50,0.039
466.00,0.040
466.50,0.040
467.00,0.040
467.50,0.041
468.00,0.041
468.50,0.042
469.00,0.042
469.50,0.042
470.00,0.043
470.50,0.043
471.00,0.043
471.50,0.044
472.00,0.044
472.50,0.045
473.00,0.045
473.50,0.045
474.00,0.046
474.50,0.046
475.00,0.047
475.50,0.047
476.00,0.048
476.50,0.048
477.00,0.048
477.50,0.049
478.00,0.049
478.50,0.050
479.00,0.050
479.50,0.051
480.00,0.051
480.50,0.051
481.00,0.052
481.50,0.052
482.00,0.053
482.50,0.053
483.00,0.054
483.50,0.054
484.00,0.054
484.50,0.055
485.00,0.055
485.50,0.055
486.00,0.056
486.50,0.056
487.00,0.056
487.50,0.057
488.00,0.057
488.50,0.057
489.00,0.057
489.50,0.057
490.00,0.058
490.50,0.058
491.00,0.058
491.50,0.058
492.00,0.058
492.50,0.058
493.00,0.058
493.50,0.058
494.00,0.059
494.50,0.059
495.00,0.059
495.50,0.058
496.00,0.058
496.50,0.058
497.00,0.058
497.50,0.058
498.00,0.058
498.50,0.058
499.00,0.057
499.50,0.057
500.00,0.057
500.50,0.057
501.00,0.057
501.50,0.056
502.00,0.056
502.50,0.055
503.00,0.055
503.50,0.055
504.00,0.054
504.50,0.054
505.00,0.053
505.50,0.053
506.00,0.052
506.50,0.052
507.00,0.051
507.50,0.051
508.00,0.050
508.50,0.049
509.00,0.049
509.50,0.048
510.00,0.047
510.50,0.047
511.00,0.046
511.50,0.045
512.00,0.045
512.50,0.044
513.00,0.043
513.50,0.043
514.00,0.042
514.50,0.041
515.00,0.040
515.50,0.040
516.00,0.039
516.50,0.038
517.00,0.037
517.50,0.037
518.00,0.036
518.50,0.035
519.00,0.034
519.50,0.033
520.00,0.032
520.50,0.032
521.00,0.031
521.50,0.030
522.00,0.029
522.50,0.028
523.00,0.028
523.50,0.027
524.00,0.026
524.50,0.026
525.00,0.025
525.50,0.024
526.00,0.023
526.50,0.023
527.00,0.022
527.50,0.021
528.00,0.020
528.50,0.020
529.00,0.019
529.50,0.018
530.00,0.018
530.50,0.017
531.00,0.016
531.50,0.016
532.00,0.015
532.50,0.014
533.00,0.014
533.50,0.014
534.00,0.013
534.50,0.013
535.00,0.012
535.50,0.012
536.00,0.011
536.50,0.011
537.00,0.010
537.50,0.010
538.00,0.010
538.50,0.009
539.00,0.009
539.50,0.008
540.00,0.008
540.50,0.008
541.00,0.008
541.50,0.007
542.00,0.007
542.50,0.007
543.00,0.006
543.50,0.006
544.00,0.006
544.50,0.006
545.00,0.005
545.50,0.005
546.00,0.005
546.50,0.005
547.00,0.004
547.50,0.004
548.00,0.004
548.50,0.004
549.00,0.004
549.50,0.004
550.00,0.004
550.50,0.003
551.00,0.003
551.50,0.003
552.00,0.003
552.50,0.003
553.00,0.003
553.50,0.003
554.00,0.003
554.50,0.003
555.00,0.003
555.50,0.002
556.00,0.002
556.50,0.002
557.00,0.002
557.50,0.002
558.00,0.002
558.50,0.002
559.00,0.002
559.50,0.002
560.00,0.002
560.50,0.002
561.00,0.002
561.50,0.002
562.00,0.002
562.50,0.002
563.00,0.002
563.50,0.002
564.00,0.002
564.50,0.002
565.00,0.001
565.50,0.002
566.00,0.001
566.50,0.001
567.00,0.001
567.50,0.002
568.00,0.001
568.50,0.001
569.00,0.001
569.50,0.001
570.00,0.001
570.50,0.002
571.00,0.001
571.50,0.001
572.00,0.001
572.50,0.001
573.00,0.001
573.50,0.001
574.00,0.001
574.50,0.001
575.00,0.001
575.50,0.001
576.00,0.001
576.50,0.001
577.00,0.001
577.50,0.001
578.00,0.001
578.50,0.001
579.00,0.001
579.50,0.001
580.00,0.001
580.50,0.001
581.00,0.001
581.50,0.001
582.00,0.001
582.50,0.001
583.00,0.001
583.50,0.001
584.00,0.001
584.50,0.001
585.00,0.001
585.50,0.001
586.00,0.001
586.50,0.001
587.00,0.001
587.50,0.001
588.00,0.001
588.50,0.001
589.00,0.001
589.50,0.001
590.00,0.001
590.50,0.001
591.00,0.001
591.50,0.001
592.00,0.001
592.50,0.001
593.00,0.001
593.50,0.001
594.00,0.001
594.50,0.001
595.00,0.001
595.50,0.001
596.00,0.001
596.50,0.001
597.00,0.001
597.50,0.001
598.00,0.001
598.50,0.001
599.00,0.001
599.50,0.001
600.00,0.001
600.50,0.001
601.00,0.001
601.50,0.001
602.00,0.001
602.50,0.001
603.00,0.001
603.50,0.001
604.00,0.001
604.50,0.001
605.00,0.001
605.50,0.001
606.00,0.001
606.50,0.001
607.00,0.001
607.50,0.001
608.00,0.001
608.50,0.001
609.00,0.001
609.50,0.001
610.00,0.001
610.50,0.001
611.00,0.001
611.50,0.001
612.00,0.001
612.50,0.001
613.00,0.001
613.50,0.001
614.00,0.001
614.50,0.001
615.00,0.001
615.50,0.001
616.00,0.001
616.50,0.001
617.00,0.001
617.50,0.001
618.00,0.001
618.50,0.001
619.00,0.001
619.50,0.001
620.00,0.001
620.50,0.001
621.00,0.001
621.50,0.001
622.00,0.001
622.50,0.001
623.00,0.001
623.50,0.001
624.00,0.001
624.50,0.001
625.00,0.002
625.50,0.003
626.00,0.004
626.50,0.004
627.00,0.005
627.50,0.004
628.00,0.004
628.50,0.003
629.00,0.003
629.50,0.003
630.00,0.003
630.50,0.003
631.00,0.003
631.50,0.003
632.00,0.003
632.50,0.003
633.00,0.003
633.50,0.003
634.00,0.003
634.50,0.003
635.00,0.003
635.50,0.003
636.00,0.003
636.50,0.002
637.00,0.002
637.50,0.002
638.00,0.002
638.50,0.002
639.00,0.002
639.50,0.002
640.00,0.002
640.50,0.002
641.00,0.002
641.50,0.002
642.00,0.002
642.50,0.002
643.00,0.002
643.50,0.002
644.00,0.002
644.50,0.002
645.00,0.002
645.50,0.002
646.00,0.002
646.50,0.002
647.00,0.002
647.50,0.002
648.00,0.002
648.50,0.002
649.00,0.002
649.50,0.002
650.00,0.002
650.50,0.002
651.00,0.002
651.50,0.002
652.00,0.002
652.50,0.002
653.00,0.002
653.50,0.001
654.00,0.001
654.50,0.001
655.00,0.001
655.50,0.002
656.00,0.002
656.50,0.002
657.00,0.002
657.50,0.002
658.00,0.002
658.50,0.002
659.00,0.002
659.50,0.002
660.00,0.002
660.50,0.002
661.00,0.002
661.50,0.002
662.00,0.002
662.50,0.002
663.00,0.002
663.50,0.002
664.00,0.002
664.50,0.002
665.00,0.002
665.50,0.002
666.00,0.002
666.50,0.002
667.00,0.002
667.50,0.002
668.00,0.002
668.50,0.002
669.00,0.002
669.50,0.002
670.00,0.002
670.50,0.002
671.00,0.002
671.50,0.002
672.00,0.002
672.50,0.002
673.00,0.002
673.50,0.002
674.00,0.002
674.50,0.002
675.00,0.002
675.50,0.001
676.00,0.002
676.50,0.002
677.00,0.002
677.50,0.002
678.00,0.002
678.50,0.002
679.00,0.002
679.50,0.002
680.00,0.002
680.50,0.002
681.00,0.001
681.50,0.001
682.00,0.002
682.50,0.002
683.00,0.002
683.50,0.001
684.00,0.001
684.50,0.001
685.00,0.001
685.50,0.001
686.00,0.001
686.50,0.001
687.00,0.001
687.50,0.001
688.00,0.001
688.50,0.001
689.00,0.001
689.50,0.001
690.00,0.001
690.50,0.001
691.00,0.001
691.50,0.001
692.00,0.001
692.50,0.002
693.00,0.002
693.50,0.002
694.00,0.001
694.50,0.001
695.00,0.001
695.50,0.001
696.00,0.001
696.50,0.001
697.00,0.001
697.50,0.001
698.00,0.001
698.50,0.001
699.00,0.001
699.50,0.001
700.00,0.001
