"G_InP - RawData"
"Wavelength nm.","Abs."
300.00,0.404
300.50,0.402
301.00,0.399
301.50,0.395
302.00,0.392
302.50,0.388
303.00,0.385
303.50,0.382
304.00,0.378
304.50,0.375
305.00,0.372
305.50,0.369
306.00,0.366
306.50,0.363
307.00,0.359
307.50,0.356
308.00,0.353
308.50,0.350
309.00,0.347
309.50,0.344
310.00,0.341
310.50,0.338
311.00,0.335
311.50,0.332
312.00,0.329
312.50,0.326
313.00,0.323
313.50,0.320
314.00,0.317
314.50,0.314
315.00,0.311
315.50,0.308
316.00,0.305
316.50,0.302
317.00,0.299
317.50,0.296
318.00,0.293
318.50,0.290
319.00,0.287
319.50,0.284
320.00,0.281
320.50,0.279
321.00,0.276
321.50,0.273
322.00,0.270
322.50,0.267
323.00,0.264
323.50,0.262
324.00,0.259
324.50,0.256
325.00,0.254
325.50,0.251
326.00,0.249
326.50,0.246
327.00,0.244
327.50,0.242
328.00,0.240
328.50,0.238
329.00,0.235
329.50,0.233
330.00,0.231
330.50,0.229
331.00,0.227
331.50,0.225
332.00,0.223
332.50,0.221
333.00,0.219
333.50,0.217
334.00,0.215
334.50,0.213
335.00,0.211
335.50,0.209
336.00,0.208
336.50,0.206
337.00,0.204
337.50,0.202
338.00,0.200
338.50,0.198
339.00,0.196
339.50,0.194
340.00,0.193
340.50,0.191
341.00,0.189
341.50,0.187
342.00,0.185
342.50,0.184
343.00,0.182
343.50,0.180
344.00,0.178
344.50,0.177
345.00,0.175
345.50,0.173
346.00,0.172
346.50,0.170
347.00,0.168
347.50,0.166
348.00,0.164
348.50,0.163
349.00,0.161
349.50,0.160
350.00,0.158
350.50,0.156
351.00,0.155
351.50,0.153
352.00,0.152
352.50,0.150
353.00,0.149
353.50,0.147
354.00,0.146
354.50,0.144
355.00,0.143
355.50,0.141
356.00,0.140
356.50,0.138
357.00,0.137
357.50,0.135
358.00,0.134
358.50,0.133
359.00,0.131
359.50,0.130
360.00,0.128
360.50,0.127
361.00,0.126
361.50,0.125
362.00,0.123
362.50,0.122
363.00,0.121
363.50,0.119
364.00,0.118
364.50,0.117
365.00,0.116
365.50,0.114
366.00,0.113
366.50,0.111
367.00,0.110
367.50,0.109
368.00,0.108
368.50,0.107
369.00,0.106
369.50,0.105
370.00,0.104
370.50,0.103
371.00,0.102
371.50,0.101
372.00,0.100
372.50,0.099
373.00,0.097
373.50,0.096
374.00,0.095
374.50,0.094
375.00,0.093
375.50,0.092
376.00,0.091
376.50,0.090
377.00,0.089
377.50,0.088
378.00,0.088
378.50,0.087
379.00,0.086
379.50,0.085
380.00,0.084
380.50,0.083
381.00,0.082
381.50,0.081
382.00,0.080
382.50,0.079
383.00,0.078
383.50,0.076
384.00,0.075
384.50,0.075
385.00,0.073
385.50,0.073
386.00,0.072
386.50,0.070
387.00,0.069
387.50,0.068
388.00,0.067
388.50,0.066
389.00,0.065
389.50,0.064
390.00,0.063
390.50,0.061
391.00,0.060
391.50,0.059
392.00,0.058
392.50,0.057
393.00,0.056
393.50,0.055
394.00,0.053
394.50,0.052
395.00,0.051
395.50,0.050
396.00,0.049
396.50,0.048
397.00,0.046
397.50,0.045
398.00,0.044
398.50,0.043
399.00,0.042
399.50,0.041
400.00,0.040
400.50,0.039
401.00,0.038
401.50,0.037
402.00,0.037
402.50,0.036
403.00,0.035
403.50,0.034
404.00,0.033
404.50,0.032
405.00,0.031
405.50,0.031
406.00,0.030
406.50,0.029
407.00,0.028
407.50,0.028
408.00,0.027
408.50,0.026
409.00,0.026
409.50,0.025
410.00,0.025
410.50,0.024
411.00,0.024
411.50,0.023
412.00,0.022
412.50,0.022
413.00,0.021
413.50,0.021
414.00,0.020
414.50,0.020
415.00,0.020
415.50,0.019
416.00,0.019
416.50,0.018
417.00,0.018
417.50,0.017
418.00,0.017
418.50,0.017
419.00,0.016
419.50,0.016
420.00,0.016
420.50,0.015
421.00,0.015
421.50,0.015
422.00,0.014
422.50,0.014
423.00,0.014
423.50,0.014
424.00,0.014
424.50,0.013
425.00,0.013
425.50,0.013
426.00,0.013
426.50,0.012
427.00,0.012
427.50,0.012
428.00,0.012
428.50,0.011
429.00,0.011
429.50,0.011
430.00,0.011
430.50,0.011
431.00,0.011
431.50,0.010
432.00,0.010
432.50,0.010
433.00,0.010
433.50,0.010
434.00,0.010
434.50,0.010
435.00,0.009
435.50,0.009
436.00,0.009
436.50,0.009
437.00,0.009
437.50,0.009
438.00,0.009
438.50,0.009
439.00,0.009
439.50,0.008
440.00,0.008
440.50,0.008
441.00,0.008
441.50,0.008
442.00,0.008
442.50,0.008
443.00,0.008
443.50,0.008
444.00,0.008
444.50,0.008
445.00,0.008
445.50,0.007
446.00,0.007
446.50,0.007
447.00,0.007
447.50,0.007
448.00,0.007
448.50,0.007
449.00,0.007
449.50,0.007
450.00,0.007
450.50,0.006
451.00,0.006
451.50,0.006
452.00,0.006
452.50,0.006
453.00,0.006
453.50,0.006
454.00,0.006
454.50,0.006
455.00,0.006
455.50,0.006
456.00,0.006
456.50,0.005
457.00,0.005
457.50,0.005
458.00,0.005
458.50,0.005
459.00,0.005
459.50,0.005
460.00,0.005
460.50,0.005
461.00,0.005
461.50,0.005
462.00,0.005
462.50,0.005
463.00,0.004
463.50,0.004
464.00,0.004
464.50,0.004
465.00,0.004
465.50,0.004
466.00,0.004
466.50,0.004
467.00,0.004
467.50,0.004
468.00,0.004
468.50,0.004
469.00,0.004
469.50,0.004
470.00,0.004
470.50,0.004
471.00,0.004
471.50,0.004
472.00,0.004
472.50,0.004
473.00,0.004
473.50,0.004
474.00,0.004
474.50,0.004
475.00,0.004
475.50,0.004
476.00,0.004
476.50,0.004
477.00,0.004
477.50,0.004
478.00,0.004
478.50,0.004
479.00,0.004
479.50,0.004
480.00,0.004
480.50,0.004
481.00,0.005
481.50,0.005
482.00,0.005
482.50,0.005
483.00,0.005
483.50,0.005
484.00,0.005
484.50,0.005
485.00,0.005
485.50,0.005
486.00,0.005
486.50,0.005
487.00,0.005
487.50,0.005
488.00,0.005
488.50,0.005
489.00,0.006
489.50,0.006
490.00,0.006
490.50,0.006
491.00,0.006
491.50,0.006
492.00,0.006
492.50,0.006
493.00,0.006
493.50,0.006
494.00,0.006
494.50,0.006
495.00,0.006
495.50,0.006
496.00,0.007
496.50,0.007
497.00,0.007
497.50,0.007
498.00,0.007
498.50,0.007
499.00,0.007
499.50,0.007
500.00,0.007
500.50,0.007
501.00,0.007
501.50,0.007
502.00,0.008
502.50,0.008
503.00,0.008
503.50,0.008
504.00,0.008
504.50,0.008
505.00,0.008
505.50,0.008
506.00,0.008
506.50,0.008
507.00,0.008
507.50,0.008
508.00,0.008
508.50,0.008
509.00,0.008
509.50,0.008
510.00,0.008
510.50,0.008
511.00,0.008
511.50,0.008
512.00,0.008
512.50,0.008
513.00,0.008
513.50,0.008
514.00,0.008
514.50,0.008
515.00,0.008
515.50,0.008
516.00,0.008
516.50,0.008
517.00,0.008
517.50,0.008
518.00,0.008
518.50,0.008
519.00,0.007
519.50,0.007
520.00,0.007
520.50,0.007
521.00,0.007
521.50,0.007
522.00,0.007
522.50,0.007
523.00,0.007
523.50,0.006
524.00,0.006
524.50,0.006
525.00,0.006
525.50,0.006
526.00,0.006
526.50,0.006
527.00,0.006
527.50,0.006
528.00,0.005
528.50,0.005
529.00,0.005
529.50,0.005
530.00,0.005
530.50,0.005
531.00,0.005
531.50,0.005
532.00,0.004
532.50,0.004
533.00,0.004
533.50,0.004
534.00,0.004
534.50,0.004
535.00,0.004
535.50,0.004
536.00,0.004
536.50,0.003
537.00,0.003
537.50,0.003
538.00,0.003
538.50,0.003
539.00,0.003
539.50,0.003
540.00,0.003
540.50,0.003
541.00,0.003
541.50,0.002
542.00,0.002
542.50,0.002
543.00,0.002
543.50,0.002
544.00,0.002
544.50,0.002
545.00,0.002
545.50,0.002
546.00,0.002
546.50,0.002
547.00,0.002
547.50,0.002
548.00,0.002
548.50,0.002
549.00,0.001
549.50,0.001
550.00,0.001
550.50,0.001
551.00,0.001
551.50,0.001
552.00,0.001
552.50,0.001
553.00,0.001
553.50,0.001
554.00,0.001
554.50,0.001
555.00,0.001
555.50,0.001
556.00,0.001
556.50,0.001
557.00,0.001
557.50,0.001
558.00,0.001
558.50,0.001
559.00,0.001
559.50,0.001
560.00,0.001
560.50,0.001
561.00,0.001
561.50,0.001
562.00,0.001
562.50,0.001
563.00,0.001
563.50,0.001
564.00,0.001
564.50,0.001
565.00,0.001
565.50,0.001
566.00,0.001
566.50,0.001
567.00,0.001
567.50,0.001
568.00,0.001
568.50,0.001
569.00,0.001
569.50,0.001
570.00,0.001
570.50,0.001
571.00,0.001
571.50,0.001
572.00,0.001
572.50,0.001
573.00,0.001
573.50,0.001
574.00,0.001
574.50,0.001
575.00,0.001
575.50,0.001
576.00,0.001
576.50,0.001
577.00,0.001
577.50,0.001
578.00,0.001
578.50,0.001
579.00,0.001
579.50,0.001
580.00,0.001
580.50,0.001
581.00,0.001
581.50,0.001
582.00,0.001
582.50,0.001
583.00,0.001
583.50,0.001
584.00,0.001
584.50,0.001
585.00,0.001
585.50,0.001
586.00,0.001
586.50,0.001
587.00,0.001
587.50,0.001
588.00,0.001
588.50,0.001
589.00,0.001
589.50,0.001
590.00,0.001
590.50,0.001
591.00,0.001
591.50,0.001
592.00,0.001
592.50,0.001
593.00,0.001
593.50,0.001
594.00,0.001
594.50,0.001
595.00,0.001
595.50,0.001
596.00,0.001
596.50,0.001
597.00,0.001
597.50,0.001
598.00,0.001
598.50,0.001
599.00,0.001
599.50,0.001
600.00,0.001
600.50,0.001
601.00,0.001
601.50,0.001
602.00,0.001
602.50,0.001
603.00,0.001
603.50,0.001
604.00,0.001
604.50,0.001
605.00,0.001
605.50,0.001
606.00,0.001
606.50,0.001
607.00,0.001
607.50,0.001
608.00,0.001
608.50,0.001
609.00,0.001
609.50,0.001
610.00,0.001
610.50,0.001
611.00,0.001
611.50,0.001
612.00,0.001
612.50,0.001
613.00,0.001
613.50,0.001
614.00,0.001
614.50,0.001
615.00,0.001
615.50,0.001
616.00,0.001
616.50,0.001
617.00,0.001
617.50,0.001
618.00,0.001
618.50,0.001
619.00,0.001
619.50,0.001
620.00,0.001
620.50,0.001
621.00,0.001
621.50,0.001
622.00,0.001
622.50,0.001
623.00,0.001
623.50,0.001
624.00,0.001
624.50,0.001
625.00,0.001
625.50,0.001
626.00,0.001
626.50,0.001
627.00,0.001
627.50,0.001
628.00,0.001
628.50,0.001
629.00,0.001
629.50,0.001
630.00,0.001
630.50,0.001
631.00,0.001
631.50,0.001
632.00,0.001
632.50,0.001
633.00,0.001
633.50,0.001
634.00,0.001
634.50,0.001
635.00,0.001
635.50,0.001
636.00,0.001
636.50,0.001
637.00,0.001
637.50,0.001
638.00,0.001
638.50,0.001
639.00,0.001
639.50,0.001
640.00,0.001
640.50,0.001
641.00,0.001
641.50,0.001
642.00,0.001
642.50,0.001
643.00,0.001
643.50,0.001
644.00,0.001
644.50,0.001
645.00,0.001
645.50,0.001
646.00,0.001
646.50,0.001
647.00,0.001
647.50,0.001
648.00,0.001
648.50,0.001
649.00,0.001
649.50,0.001
650.00,0.001
650.50,0.001
651.00,0.001
651.50,0.001
652.00,0.001
652.50,0.001
653.00,0.001
653.50,0.001
654.00,0.001
654.50,0.001
655.00,0.001
655.50,0.001
656.00,0.001
656.50,0.001
657.00,0.001
657.50,0.001
658.00,0.001
658.50,0.000
659.00,0.001
659.50,0.001
660.00,0.001
660.50,0.001
661.00,0.001
661.50,0.001
662.00,0.001
662.50,0.001
663.00,0.001
663.50,0.001
664.00,0.001
664.50,0.001
665.00,0.001
665.50,0.001
666.00,0.001
666.50,0.001
667.00,0.001
667.50,0.001
668.00,0.001
668.50,0.001
669.00,0.001
669.50,0.000
670.00,0.000
670.50,0.000
671.00,0.000
671.50,0.001
672.00,0.001
672.50,0.001
673.00,0.001
673.50,0.000
674.00,0.000
674.50,0.000
675.00,0.000
675.50,0.000
676.00,0.001
676.50,0.001
677.00,0.001
677.50,0.000
678.00,0.001
678.50,0.000
679.00,0.000
679.50,0.001
680.00,0.001
680.50,0.001
681.00,0.001
681.50,0.001
682.00,0.000
682.50,0.000
683.00,0.000
683.50,0.000
684.00,0.000
684.50,0.000
685.00,0.001
685.50,0.001
686.00,0.001
686.50,0.001
687.00,0.001
687.50,0.001
688.00,0.000
688.50,0.000
689.00,0.001
689.50,0.000
690.00,0.000
690.50,0.001
691.00,0.000
691.50,0.000
692.00,0.000
692.50,0.001
693.00,0.001
693.50,0.001
694.00,0.001
694.50,0.001
695.00,0.000
695.50,0.000
696.00,0.000
696.50,0.000
697.00,0.000
697.50,0.000
698.00,0.000
698.50,0.000
699.00,0.000
699.50,0.000
700.00,0.000
